1.860000000000000000e+02 6.800000000000000000e+01
1.300000000000000000e+01 6.900000000000000000e+01
1.850000000000000000e+02 6.900000000000000000e+01
1.860000000000000000e+02 6.900000000000000000e+01
1.300000000000000000e+01 7.000000000000000000e+01
1.400000000000000000e+01 7.000000000000000000e+01
1.850000000000000000e+02 7.000000000000000000e+01
1.860000000000000000e+02 7.000000000000000000e+01
1.300000000000000000e+01 7.100000000000000000e+01
1.400000000000000000e+01 7.100000000000000000e+01
1.850000000000000000e+02 7.100000000000000000e+01
1.860000000000000000e+02 7.100000000000000000e+01
1.300000000000000000e+01 7.200000000000000000e+01
1.400000000000000000e+01 7.200000000000000000e+01
1.850000000000000000e+02 7.200000000000000000e+01
1.860000000000000000e+02 7.200000000000000000e+01
1.300000000000000000e+01 7.300000000000000000e+01
1.400000000000000000e+01 7.300000000000000000e+01
1.850000000000000000e+02 7.300000000000000000e+01
1.860000000000000000e+02 7.300000000000000000e+01
1.300000000000000000e+01 7.400000000000000000e+01
1.400000000000000000e+01 7.400000000000000000e+01
1.850000000000000000e+02 7.400000000000000000e+01
1.860000000000000000e+02 7.400000000000000000e+01
1.300000000000000000e+01 7.500000000000000000e+01
1.400000000000000000e+01 7.500000000000000000e+01
1.850000000000000000e+02 7.500000000000000000e+01
1.860000000000000000e+02 7.500000000000000000e+01
1.300000000000000000e+01 7.600000000000000000e+01
1.400000000000000000e+01 7.600000000000000000e+01
1.850000000000000000e+02 7.600000000000000000e+01
1.860000000000000000e+02 7.600000000000000000e+01
1.300000000000000000e+01 7.700000000000000000e+01
1.400000000000000000e+01 7.700000000000000000e+01
1.850000000000000000e+02 7.700000000000000000e+01
1.860000000000000000e+02 7.700000000000000000e+01
1.300000000000000000e+01 7.800000000000000000e+01
1.400000000000000000e+01 7.800000000000000000e+01
1.850000000000000000e+02 7.800000000000000000e+01
1.860000000000000000e+02 7.800000000000000000e+01
1.300000000000000000e+01 7.900000000000000000e+01
1.400000000000000000e+01 7.900000000000000000e+01
6.600000000000000000e+01 7.900000000000000000e+01
1.850000000000000000e+02 7.900000000000000000e+01
1.860000000000000000e+02 7.900000000000000000e+01
1.300000000000000000e+01 8.000000000000000000e+01
1.400000000000000000e+01 8.000000000000000000e+01
6.600000000000000000e+01 8.000000000000000000e+01
1.390000000000000000e+02 8.000000000000000000e+01
1.850000000000000000e+02 8.000000000000000000e+01
1.860000000000000000e+02 8.000000000000000000e+01
1.300000000000000000e+01 8.100000000000000000e+01
1.400000000000000000e+01 8.100000000000000000e+01
6.600000000000000000e+01 8.100000000000000000e+01
1.390000000000000000e+02 8.100000000000000000e+01
1.850000000000000000e+02 8.100000000000000000e+01
1.860000000000000000e+02 8.100000000000000000e+01
1.300000000000000000e+01 8.200000000000000000e+01
1.400000000000000000e+01 8.200000000000000000e+01
6.600000000000000000e+01 8.200000000000000000e+01
1.390000000000000000e+02 8.200000000000000000e+01
1.400000000000000000e+02 8.200000000000000000e+01
1.850000000000000000e+02 8.200000000000000000e+01
1.860000000000000000e+02 8.200000000000000000e+01
1.300000000000000000e+01 8.300000000000000000e+01
1.400000000000000000e+01 8.300000000000000000e+01
6.600000000000000000e+01 8.300000000000000000e+01
1.390000000000000000e+02 8.300000000000000000e+01
1.400000000000000000e+02 8.300000000000000000e+01
1.850000000000000000e+02 8.300000000000000000e+01
1.860000000000000000e+02 8.300000000000000000e+01
1.300000000000000000e+01 8.400000000000000000e+01
1.400000000000000000e+01 8.400000000000000000e+01
6.600000000000000000e+01 8.400000000000000000e+01
1.390000000000000000e+02 8.400000000000000000e+01
1.400000000000000000e+02 8.400000000000000000e+01
1.630000000000000000e+02 8.400000000000000000e+01
1.640000000000000000e+02 8.400000000000000000e+01
1.850000000000000000e+02 8.400000000000000000e+01
1.860000000000000000e+02 8.400000000000000000e+01
1.300000000000000000e+01 8.500000000000000000e+01
1.400000000000000000e+01 8.500000000000000000e+01
6.600000000000000000e+01 8.500000000000000000e+01
8.900000000000000000e+01 8.500000000000000000e+01
1.390000000000000000e+02 8.500000000000000000e+01
1.400000000000000000e+02 8.500000000000000000e+01
1.630000000000000000e+02 8.500000000000000000e+01
1.640000000000000000e+02 8.500000000000000000e+01
1.850000000000000000e+02 8.500000000000000000e+01
1.860000000000000000e+02 8.500000000000000000e+01
1.300000000000000000e+01 8.600000000000000000e+01
1.400000000000000000e+01 8.600000000000000000e+01
6.600000000000000000e+01 8.600000000000000000e+01
8.800000000000000000e+01 8.600000000000000000e+01
8.900000000000000000e+01 8.600000000000000000e+01
9.000000000000000000e+01 8.600000000000000000e+01
1.390000000000000000e+02 8.600000000000000000e+01
1.400000000000000000e+02 8.600000000000000000e+01
1.620000000000000000e+02 8.600000000000000000e+01
1.630000000000000000e+02 8.600000000000000000e+01
1.640000000000000000e+02 8.600000000000000000e+01
1.850000000000000000e+02 8.600000000000000000e+01
1.860000000000000000e+02 8.600000000000000000e+01
1.300000000000000000e+01 8.700000000000000000e+01
1.400000000000000000e+01 8.700000000000000000e+01
6.600000000000000000e+01 8.700000000000000000e+01
8.800000000000000000e+01 8.700000000000000000e+01
9.000000000000000000e+01 8.700000000000000000e+01
1.390000000000000000e+02 8.700000000000000000e+01
1.400000000000000000e+02 8.700000000000000000e+01
1.620000000000000000e+02 8.700000000000000000e+01
1.630000000000000000e+02 8.700000000000000000e+01
1.640000000000000000e+02 8.700000000000000000e+01
1.650000000000000000e+02 8.700000000000000000e+01
1.850000000000000000e+02 8.700000000000000000e+01
1.860000000000000000e+02 8.700000000000000000e+01
1.300000000000000000e+01 8.800000000000000000e+01
1.400000000000000000e+01 8.800000000000000000e+01
6.600000000000000000e+01 8.800000000000000000e+01
8.800000000000000000e+01 8.800000000000000000e+01
9.000000000000000000e+01 8.800000000000000000e+01
1.390000000000000000e+02 8.800000000000000000e+01
1.400000000000000000e+02 8.800000000000000000e+01
1.620000000000000000e+02 8.800000000000000000e+01
1.650000000000000000e+02 8.800000000000000000e+01
1.850000000000000000e+02 8.800000000000000000e+01
1.860000000000000000e+02 8.800000000000000000e+01
1.300000000000000000e+01 8.900000000000000000e+01
1.400000000000000000e+01 8.900000000000000000e+01
6.600000000000000000e+01 8.900000000000000000e+01
8.700000000000000000e+01 8.900000000000000000e+01
8.800000000000000000e+01 8.900000000000000000e+01
9.000000000000000000e+01 8.900000000000000000e+01
9.100000000000000000e+01 8.900000000000000000e+01
1.390000000000000000e+02 8.900000000000000000e+01
1.400000000000000000e+02 8.900000000000000000e+01
1.610000000000000000e+02 8.900000000000000000e+01
1.620000000000000000e+02 8.900000000000000000e+01
1.650000000000000000e+02 8.900000000000000000e+01
1.850000000000000000e+02 8.900000000000000000e+01
1.860000000000000000e+02 8.900000000000000000e+01
0.000000000000000000e+00 9.000000000000000000e+01
1.300000000000000000e+01 9.000000000000000000e+01
1.400000000000000000e+01 9.000000000000000000e+01
6.600000000000000000e+01 9.000000000000000000e+01
8.700000000000000000e+01 9.000000000000000000e+01
9.100000000000000000e+01 9.000000000000000000e+01
1.390000000000000000e+02 9.000000000000000000e+01
1.400000000000000000e+02 9.000000000000000000e+01
1.610000000000000000e+02 9.000000000000000000e+01
1.650000000000000000e+02 9.000000000000000000e+01
1.850000000000000000e+02 9.000000000000000000e+01
1.860000000000000000e+02 9.000000000000000000e+01
0.000000000000000000e+00 9.100000000000000000e+01
1.300000000000000000e+01 9.100000000000000000e+01
1.400000000000000000e+01 9.100000000000000000e+01
6.600000000000000000e+01 9.100000000000000000e+01
8.700000000000000000e+01 9.100000000000000000e+01
9.100000000000000000e+01 9.100000000000000000e+01
1.390000000000000000e+02 9.100000000000000000e+01
1.400000000000000000e+02 9.100000000000000000e+01
1.610000000000000000e+02 9.100000000000000000e+01
1.650000000000000000e+02 9.100000000000000000e+01
1.850000000000000000e+02 9.100000000000000000e+01
1.860000000000000000e+02 9.100000000000000000e+01
0.000000000000000000e+00 9.200000000000000000e+01
1.300000000000000000e+01 9.200000000000000000e+01
1.400000000000000000e+01 9.200000000000000000e+01
6.600000000000000000e+01 9.200000000000000000e+01
8.700000000000000000e+01 9.200000000000000000e+01
9.100000000000000000e+01 9.200000000000000000e+01
1.390000000000000000e+02 9.200000000000000000e+01
1.400000000000000000e+02 9.200000000000000000e+01
1.610000000000000000e+02 9.200000000000000000e+01
1.650000000000000000e+02 9.200000000000000000e+01
1.850000000000000000e+02 9.200000000000000000e+01
1.860000000000000000e+02 9.200000000000000000e+01
0.000000000000000000e+00 9.300000000000000000e+01
1.000000000000000000e+00 9.300000000000000000e+01
1.300000000000000000e+01 9.300000000000000000e+01
1.400000000000000000e+01 9.300000000000000000e+01
6.600000000000000000e+01 9.300000000000000000e+01
8.600000000000000000e+01 9.300000000000000000e+01
8.700000000000000000e+01 9.300000000000000000e+01
9.100000000000000000e+01 9.300000000000000000e+01
1.390000000000000000e+02 9.300000000000000000e+01
1.400000000000000000e+02 9.300000000000000000e+01
1.600000000000000000e+02 9.300000000000000000e+01
1.610000000000000000e+02 9.300000000000000000e+01
1.650000000000000000e+02 9.300000000000000000e+01
1.660000000000000000e+02 9.300000000000000000e+01
1.850000000000000000e+02 9.300000000000000000e+01
1.860000000000000000e+02 9.300000000000000000e+01
1.000000000000000000e+00 9.400000000000000000e+01
1.300000000000000000e+01 9.400000000000000000e+01
1.400000000000000000e+01 9.400000000000000000e+01
6.600000000000000000e+01 9.400000000000000000e+01
8.600000000000000000e+01 9.400000000000000000e+01
9.100000000000000000e+01 9.400000000000000000e+01
1.390000000000000000e+02 9.400000000000000000e+01
1.400000000000000000e+02 9.400000000000000000e+01
1.600000000000000000e+02 9.400000000000000000e+01
1.660000000000000000e+02 9.400000000000000000e+01
1.850000000000000000e+02 9.400000000000000000e+01
1.860000000000000000e+02 9.400000000000000000e+01
1.000000000000000000e+00 9.500000000000000000e+01
1.300000000000000000e+01 9.500000000000000000e+01
1.400000000000000000e+01 9.500000000000000000e+01
6.600000000000000000e+01 9.500000000000000000e+01
8.600000000000000000e+01 9.500000000000000000e+01
9.100000000000000000e+01 9.500000000000000000e+01
9.200000000000000000e+01 9.500000000000000000e+01
1.390000000000000000e+02 9.500000000000000000e+01
1.400000000000000000e+02 9.500000000000000000e+01
1.590000000000000000e+02 9.500000000000000000e+01
1.600000000000000000e+02 9.500000000000000000e+01
1.660000000000000000e+02 9.500000000000000000e+01
1.850000000000000000e+02 9.500000000000000000e+01
1.860000000000000000e+02 9.500000000000000000e+01
1.000000000000000000e+00 9.600000000000000000e+01
1.300000000000000000e+01 9.600000000000000000e+01
1.400000000000000000e+01 9.600000000000000000e+01
3.500000000000000000e+01 9.600000000000000000e+01
3.600000000000000000e+01 9.600000000000000000e+01
6.500000000000000000e+01 9.600000000000000000e+01
6.600000000000000000e+01 9.600000000000000000e+01
6.700000000000000000e+01 9.600000000000000000e+01
8.500000000000000000e+01 9.600000000000000000e+01
8.600000000000000000e+01 9.600000000000000000e+01
9.200000000000000000e+01 9.600000000000000000e+01
1.390000000000000000e+02 9.600000000000000000e+01
1.400000000000000000e+02 9.600000000000000000e+01
1.590000000000000000e+02 9.600000000000000000e+01
1.660000000000000000e+02 9.600000000000000000e+01
1.850000000000000000e+02 9.600000000000000000e+01
1.860000000000000000e+02 9.600000000000000000e+01
1.000000000000000000e+00 9.700000000000000000e+01
1.300000000000000000e+01 9.700000000000000000e+01
1.400000000000000000e+01 9.700000000000000000e+01
3.500000000000000000e+01 9.700000000000000000e+01
3.600000000000000000e+01 9.700000000000000000e+01
3.700000000000000000e+01 9.700000000000000000e+01
6.500000000000000000e+01 9.700000000000000000e+01
6.700000000000000000e+01 9.700000000000000000e+01
8.500000000000000000e+01 9.700000000000000000e+01
9.200000000000000000e+01 9.700000000000000000e+01
1.390000000000000000e+02 9.700000000000000000e+01
1.400000000000000000e+02 9.700000000000000000e+01
1.590000000000000000e+02 9.700000000000000000e+01
1.660000000000000000e+02 9.700000000000000000e+01
1.850000000000000000e+02 9.700000000000000000e+01
1.860000000000000000e+02 9.700000000000000000e+01
1.000000000000000000e+00 9.800000000000000000e+01
1.300000000000000000e+01 9.800000000000000000e+01
1.400000000000000000e+01 9.800000000000000000e+01
3.400000000000000000e+01 9.800000000000000000e+01
3.500000000000000000e+01 9.800000000000000000e+01
3.700000000000000000e+01 9.800000000000000000e+01
6.500000000000000000e+01 9.800000000000000000e+01
6.700000000000000000e+01 9.800000000000000000e+01
8.500000000000000000e+01 9.800000000000000000e+01
9.200000000000000000e+01 9.800000000000000000e+01
1.390000000000000000e+02 9.800000000000000000e+01
1.400000000000000000e+02 9.800000000000000000e+01
1.590000000000000000e+02 9.800000000000000000e+01
1.660000000000000000e+02 9.800000000000000000e+01
1.850000000000000000e+02 9.800000000000000000e+01
1.860000000000000000e+02 9.800000000000000000e+01
