5.300000000000000000e+01 0.000000000000000000e+00
5.500000000000000000e+01 0.000000000000000000e+00
5.600000000000000000e+01 0.000000000000000000e+00
1.380000000000000000e+02 0.000000000000000000e+00
1.400000000000000000e+02 0.000000000000000000e+00
1.410000000000000000e+02 0.000000000000000000e+00
2.210000000000000000e+02 0.000000000000000000e+00
5.400000000000000000e+02 0.000000000000000000e+00
5.440000000000000000e+02 0.000000000000000000e+00
6.240000000000000000e+02 0.000000000000000000e+00
6.280000000000000000e+02 0.000000000000000000e+00
7.060000000000000000e+02 0.000000000000000000e+00
7.100000000000000000e+02 0.000000000000000000e+00
7.640000000000000000e+02 0.000000000000000000e+00
7.650000000000000000e+02 0.000000000000000000e+00
7.660000000000000000e+02 0.000000000000000000e+00
7.670000000000000000e+02 0.000000000000000000e+00
7.770000000000000000e+02 0.000000000000000000e+00
7.780000000000000000e+02 0.000000000000000000e+00
7.880000000000000000e+02 0.000000000000000000e+00
7.930000000000000000e+02 0.000000000000000000e+00
5.300000000000000000e+01 1.000000000000000000e+00
5.500000000000000000e+01 1.000000000000000000e+00
5.600000000000000000e+01 1.000000000000000000e+00
1.380000000000000000e+02 1.000000000000000000e+00
1.400000000000000000e+02 1.000000000000000000e+00
2.210000000000000000e+02 1.000000000000000000e+00
5.400000000000000000e+02 1.000000000000000000e+00
5.440000000000000000e+02 1.000000000000000000e+00
6.240000000000000000e+02 1.000000000000000000e+00
6.280000000000000000e+02 1.000000000000000000e+00
7.060000000000000000e+02 1.000000000000000000e+00
7.100000000000000000e+02 1.000000000000000000e+00
7.880000000000000000e+02 1.000000000000000000e+00
7.920000000000000000e+02 1.000000000000000000e+00
7.930000000000000000e+02 1.000000000000000000e+00
5.300000000000000000e+01 2.000000000000000000e+00
5.500000000000000000e+01 2.000000000000000000e+00
1.380000000000000000e+02 2.000000000000000000e+00
1.400000000000000000e+02 2.000000000000000000e+00
2.210000000000000000e+02 2.000000000000000000e+00
5.400000000000000000e+02 2.000000000000000000e+00
5.440000000000000000e+02 2.000000000000000000e+00
6.240000000000000000e+02 2.000000000000000000e+00
6.280000000000000000e+02 2.000000000000000000e+00
7.060000000000000000e+02 2.000000000000000000e+00
7.100000000000000000e+02 2.000000000000000000e+00
7.880000000000000000e+02 2.000000000000000000e+00
7.920000000000000000e+02 2.000000000000000000e+00
5.300000000000000000e+01 3.000000000000000000e+00
5.500000000000000000e+01 3.000000000000000000e+00
1.380000000000000000e+02 3.000000000000000000e+00
1.400000000000000000e+02 3.000000000000000000e+00
2.210000000000000000e+02 3.000000000000000000e+00
5.400000000000000000e+02 3.000000000000000000e+00
5.440000000000000000e+02 3.000000000000000000e+00
6.240000000000000000e+02 3.000000000000000000e+00
6.280000000000000000e+02 3.000000000000000000e+00
7.060000000000000000e+02 3.000000000000000000e+00
7.100000000000000000e+02 3.000000000000000000e+00
7.880000000000000000e+02 3.000000000000000000e+00
7.920000000000000000e+02 3.000000000000000000e+00
5.300000000000000000e+01 4.000000000000000000e+00
5.500000000000000000e+01 4.000000000000000000e+00
1.380000000000000000e+02 4.000000000000000000e+00
1.400000000000000000e+02 4.000000000000000000e+00
2.210000000000000000e+02 4.000000000000000000e+00
5.400000000000000000e+02 4.000000000000000000e+00
5.440000000000000000e+02 4.000000000000000000e+00
6.240000000000000000e+02 4.000000000000000000e+00
6.280000000000000000e+02 4.000000000000000000e+00
7.060000000000000000e+02 4.000000000000000000e+00
7.100000000000000000e+02 4.000000000000000000e+00
7.880000000000000000e+02 4.000000000000000000e+00
7.920000000000000000e+02 4.000000000000000000e+00
5.300000000000000000e+01 5.000000000000000000e+00
5.500000000000000000e+01 5.000000000000000000e+00
1.380000000000000000e+02 5.000000000000000000e+00
1.400000000000000000e+02 5.000000000000000000e+00
2.210000000000000000e+02 5.000000000000000000e+00
5.400000000000000000e+02 5.000000000000000000e+00
5.430000000000000000e+02 5.000000000000000000e+00
5.440000000000000000e+02 5.000000000000000000e+00
6.240000000000000000e+02 5.000000000000000000e+00
6.280000000000000000e+02 5.000000000000000000e+00
7.060000000000000000e+02 5.000000000000000000e+00
7.100000000000000000e+02 5.000000000000000000e+00
7.880000000000000000e+02 5.000000000000000000e+00
7.920000000000000000e+02 5.000000000000000000e+00
5.300000000000000000e+01 6.000000000000000000e+00
5.500000000000000000e+01 6.000000000000000000e+00
1.380000000000000000e+02 6.000000000000000000e+00
1.400000000000000000e+02 6.000000000000000000e+00
2.210000000000000000e+02 6.000000000000000000e+00
2.230000000000000000e+02 6.000000000000000000e+00
5.400000000000000000e+02 6.000000000000000000e+00
5.430000000000000000e+02 6.000000000000000000e+00
6.240000000000000000e+02 6.000000000000000000e+00
6.280000000000000000e+02 6.000000000000000000e+00
7.060000000000000000e+02 6.000000000000000000e+00
7.100000000000000000e+02 6.000000000000000000e+00
7.880000000000000000e+02 6.000000000000000000e+00
7.920000000000000000e+02 6.000000000000000000e+00
5.300000000000000000e+01 7.000000000000000000e+00
5.500000000000000000e+01 7.000000000000000000e+00
1.380000000000000000e+02 7.000000000000000000e+00
1.400000000000000000e+02 7.000000000000000000e+00
2.210000000000000000e+02 7.000000000000000000e+00
2.230000000000000000e+02 7.000000000000000000e+00
5.400000000000000000e+02 7.000000000000000000e+00
5.430000000000000000e+02 7.000000000000000000e+00
6.240000000000000000e+02 7.000000000000000000e+00
6.280000000000000000e+02 7.000000000000000000e+00
7.060000000000000000e+02 7.000000000000000000e+00
7.100000000000000000e+02 7.000000000000000000e+00
7.880000000000000000e+02 7.000000000000000000e+00
7.920000000000000000e+02 7.000000000000000000e+00
5.300000000000000000e+01 8.000000000000000000e+00
5.500000000000000000e+01 8.000000000000000000e+00
1.380000000000000000e+02 8.000000000000000000e+00
1.400000000000000000e+02 8.000000000000000000e+00
2.210000000000000000e+02 8.000000000000000000e+00
2.230000000000000000e+02 8.000000000000000000e+00
5.400000000000000000e+02 8.000000000000000000e+00
5.430000000000000000e+02 8.000000000000000000e+00
6.240000000000000000e+02 8.000000000000000000e+00
6.280000000000000000e+02 8.000000000000000000e+00
7.060000000000000000e+02 8.000000000000000000e+00
7.100000000000000000e+02 8.000000000000000000e+00
7.880000000000000000e+02 8.000000000000000000e+00
7.920000000000000000e+02 8.000000000000000000e+00
5.300000000000000000e+01 9.000000000000000000e+00
5.500000000000000000e+01 9.000000000000000000e+00
1.380000000000000000e+02 9.000000000000000000e+00
1.390000000000000000e+02 9.000000000000000000e+00
2.210000000000000000e+02 9.000000000000000000e+00
2.230000000000000000e+02 9.000000000000000000e+00
5.400000000000000000e+02 9.000000000000000000e+00
5.430000000000000000e+02 9.000000000000000000e+00
6.240000000000000000e+02 9.000000000000000000e+00
6.280000000000000000e+02 9.000000000000000000e+00
7.060000000000000000e+02 9.000000000000000000e+00
7.100000000000000000e+02 9.000000000000000000e+00
7.880000000000000000e+02 9.000000000000000000e+00
7.920000000000000000e+02 9.000000000000000000e+00
5.300000000000000000e+01 1.000000000000000000e+01
5.500000000000000000e+01 1.000000000000000000e+01
1.380000000000000000e+02 1.000000000000000000e+01
1.390000000000000000e+02 1.000000000000000000e+01
2.210000000000000000e+02 1.000000000000000000e+01
2.220000000000000000e+02 1.000000000000000000e+01
2.230000000000000000e+02 1.000000000000000000e+01
5.400000000000000000e+02 1.000000000000000000e+01
5.430000000000000000e+02 1.000000000000000000e+01
6.240000000000000000e+02 1.000000000000000000e+01
6.280000000000000000e+02 1.000000000000000000e+01
7.060000000000000000e+02 1.000000000000000000e+01
7.090000000000000000e+02 1.000000000000000000e+01
7.100000000000000000e+02 1.000000000000000000e+01
7.880000000000000000e+02 1.000000000000000000e+01
7.920000000000000000e+02 1.000000000000000000e+01
5.300000000000000000e+01 1.100000000000000000e+01
5.500000000000000000e+01 1.100000000000000000e+01
1.380000000000000000e+02 1.100000000000000000e+01
1.390000000000000000e+02 1.100000000000000000e+01
2.220000000000000000e+02 1.100000000000000000e+01
2.230000000000000000e+02 1.100000000000000000e+01
5.400000000000000000e+02 1.100000000000000000e+01
5.430000000000000000e+02 1.100000000000000000e+01
6.240000000000000000e+02 1.100000000000000000e+01
6.280000000000000000e+02 1.100000000000000000e+01
7.060000000000000000e+02 1.100000000000000000e+01
7.090000000000000000e+02 1.100000000000000000e+01
7.880000000000000000e+02 1.100000000000000000e+01
7.920000000000000000e+02 1.100000000000000000e+01
5.400000000000000000e+01 1.200000000000000000e+01
5.500000000000000000e+01 1.200000000000000000e+01
1.380000000000000000e+02 1.200000000000000000e+01
1.390000000000000000e+02 1.200000000000000000e+01
2.220000000000000000e+02 1.200000000000000000e+01
2.230000000000000000e+02 1.200000000000000000e+01
5.400000000000000000e+02 1.200000000000000000e+01
5.430000000000000000e+02 1.200000000000000000e+01
6.240000000000000000e+02 1.200000000000000000e+01
6.280000000000000000e+02 1.200000000000000000e+01
7.060000000000000000e+02 1.200000000000000000e+01
7.090000000000000000e+02 1.200000000000000000e+01
7.880000000000000000e+02 1.200000000000000000e+01
7.920000000000000000e+02 1.200000000000000000e+01
5.400000000000000000e+01 1.300000000000000000e+01
5.500000000000000000e+01 1.300000000000000000e+01
1.390000000000000000e+02 1.300000000000000000e+01
2.220000000000000000e+02 1.300000000000000000e+01
2.230000000000000000e+02 1.300000000000000000e+01
5.400000000000000000e+02 1.300000000000000000e+01
5.430000000000000000e+02 1.300000000000000000e+01
6.240000000000000000e+02 1.300000000000000000e+01
6.270000000000000000e+02 1.300000000000000000e+01
7.060000000000000000e+02 1.300000000000000000e+01
7.090000000000000000e+02 1.300000000000000000e+01
7.880000000000000000e+02 1.300000000000000000e+01
7.920000000000000000e+02 1.300000000000000000e+01
5.400000000000000000e+01 1.400000000000000000e+01
5.500000000000000000e+01 1.400000000000000000e+01
1.390000000000000000e+02 1.400000000000000000e+01
2.220000000000000000e+02 1.400000000000000000e+01
2.230000000000000000e+02 1.400000000000000000e+01
5.400000000000000000e+02 1.400000000000000000e+01
5.430000000000000000e+02 1.400000000000000000e+01
6.240000000000000000e+02 1.400000000000000000e+01
6.270000000000000000e+02 1.400000000000000000e+01
7.060000000000000000e+02 1.400000000000000000e+01
7.090000000000000000e+02 1.400000000000000000e+01
7.880000000000000000e+02 1.400000000000000000e+01
7.920000000000000000e+02 1.400000000000000000e+01
5.400000000000000000e+01 1.500000000000000000e+01
5.500000000000000000e+01 1.500000000000000000e+01
1.390000000000000000e+02 1.500000000000000000e+01
2.220000000000000000e+02 1.500000000000000000e+01
2.230000000000000000e+02 1.500000000000000000e+01
5.400000000000000000e+02 1.500000000000000000e+01
5.430000000000000000e+02 1.500000000000000000e+01
6.240000000000000000e+02 1.500000000000000000e+01
6.270000000000000000e+02 1.500000000000000000e+01
7.060000000000000000e+02 1.500000000000000000e+01
7.090000000000000000e+02 1.500000000000000000e+01
7.880000000000000000e+02 1.500000000000000000e+01
7.920000000000000000e+02 1.500000000000000000e+01
5.400000000000000000e+01 1.600000000000000000e+01
1.390000000000000000e+02 1.600000000000000000e+01
2.220000000000000000e+02 1.600000000000000000e+01
2.230000000000000000e+02 1.600000000000000000e+01
5.400000000000000000e+02 1.600000000000000000e+01
5.430000000000000000e+02 1.600000000000000000e+01
6.240000000000000000e+02 1.600000000000000000e+01
6.270000000000000000e+02 1.600000000000000000e+01
7.060000000000000000e+02 1.600000000000000000e+01
7.090000000000000000e+02 1.600000000000000000e+01
7.880000000000000000e+02 1.600000000000000000e+01
7.920000000000000000e+02 1.600000000000000000e+01
5.400000000000000000e+01 1.700000000000000000e+01
1.390000000000000000e+02 1.700000000000000000e+01
2.220000000000000000e+02 1.700000000000000000e+01
2.230000000000000000e+02 1.700000000000000000e+01
5.400000000000000000e+02 1.700000000000000000e+01
5.430000000000000000e+02 1.700000000000000000e+01
6.240000000000000000e+02 1.700000000000000000e+01
6.270000000000000000e+02 1.700000000000000000e+01
7.060000000000000000e+02 1.700000000000000000e+01
7.090000000000000000e+02 1.700000000000000000e+01
7.880000000000000000e+02 1.700000000000000000e+01
7.920000000000000000e+02 1.700000000000000000e+01
5.400000000000000000e+01 1.800000000000000000e+01
1.390000000000000000e+02 1.800000000000000000e+01
2.220000000000000000e+02 1.800000000000000000e+01
2.230000000000000000e+02 1.800000000000000000e+01
5.400000000000000000e+02 1.800000000000000000e+01
5.430000000000000000e+02 1.800000000000000000e+01
6.240000000000000000e+02 1.800000000000000000e+01
6.270000000000000000e+02 1.800000000000000000e+01
7.060000000000000000e+02 1.800000000000000000e+01
7.090000000000000000e+02 1.800000000000000000e+01
7.880000000000000000e+02 1.800000000000000000e+01
7.920000000000000000e+02 1.800000000000000000e+01
5.400000000000000000e+01 1.900000000000000000e+01
1.390000000000000000e+02 1.900000000000000000e+01
2.220000000000000000e+02 1.900000000000000000e+01
2.230000000000000000e+02 1.900000000000000000e+01
5.400000000000000000e+02 1.900000000000000000e+01
5.430000000000000000e+02 1.900000000000000000e+01
6.240000000000000000e+02 1.900000000000000000e+01
6.270000000000000000e+02 1.900000000000000000e+01
7.060000000000000000e+02 1.900000000000000000e+01
7.090000000000000000e+02 1.900000000000000000e+01
7.880000000000000000e+02 1.900000000000000000e+01
7.920000000000000000e+02 1.900000000000000000e+01
5.400000000000000000e+01 2.000000000000000000e+01
1.390000000000000000e+02 2.000000000000000000e+01
2.220000000000000000e+02 2.000000000000000000e+01
2.230000000000000000e+02 2.000000000000000000e+01
5.400000000000000000e+02 2.000000000000000000e+01
5.430000000000000000e+02 2.000000000000000000e+01
6.240000000000000000e+02 2.000000000000000000e+01
6.270000000000000000e+02 2.000000000000000000e+01
7.060000000000000000e+02 2.000000000000000000e+01
7.090000000000000000e+02 2.000000000000000000e+01
7.880000000000000000e+02 2.000000000000000000e+01
7.920000000000000000e+02 2.000000000000000000e+01
5.400000000000000000e+01 2.100000000000000000e+01
2.220000000000000000e+02 2.100000000000000000e+01
5.400000000000000000e+02 2.100000000000000000e+01
5.430000000000000000e+02 2.100000000000000000e+01
6.240000000000000000e+02 2.100000000000000000e+01
6.270000000000000000e+02 2.100000000000000000e+01
7.060000000000000000e+02 2.100000000000000000e+01
7.090000000000000000e+02 2.100000000000000000e+01
7.880000000000000000e+02 2.100000000000000000e+01
7.920000000000000000e+02 2.100000000000000000e+01
2.220000000000000000e+02 2.200000000000000000e+01
5.400000000000000000e+02 2.200000000000000000e+01
5.430000000000000000e+02 2.200000000000000000e+01
6.240000000000000000e+02 2.200000000000000000e+01
6.270000000000000000e+02 2.200000000000000000e+01
7.060000000000000000e+02 2.200000000000000000e+01
7.090000000000000000e+02 2.200000000000000000e+01
7.880000000000000000e+02 2.200000000000000000e+01
7.920000000000000000e+02 2.200000000000000000e+01
2.220000000000000000e+02 2.300000000000000000e+01
5.400000000000000000e+02 2.300000000000000000e+01
5.430000000000000000e+02 2.300000000000000000e+01
6.240000000000000000e+02 2.300000000000000000e+01
6.270000000000000000e+02 2.300000000000000000e+01
7.060000000000000000e+02 2.300000000000000000e+01
7.090000000000000000e+02 2.300000000000000000e+01
7.880000000000000000e+02 2.300000000000000000e+01
7.920000000000000000e+02 2.300000000000000000e+01
5.400000000000000000e+02 2.400000000000000000e+01
5.430000000000000000e+02 2.400000000000000000e+01
6.240000000000000000e+02 2.400000000000000000e+01
6.270000000000000000e+02 2.400000000000000000e+01
7.060000000000000000e+02 2.400000000000000000e+01
7.090000000000000000e+02 2.400000000000000000e+01
7.880000000000000000e+02 2.400000000000000000e+01
7.910000000000000000e+02 2.400000000000000000e+01
5.400000000000000000e+02 2.500000000000000000e+01
5.430000000000000000e+02 2.500000000000000000e+01
6.240000000000000000e+02 2.500000000000000000e+01
6.270000000000000000e+02 2.500000000000000000e+01
7.060000000000000000e+02 2.500000000000000000e+01
7.090000000000000000e+02 2.500000000000000000e+01
7.880000000000000000e+02 2.500000000000000000e+01
7.910000000000000000e+02 2.500000000000000000e+01
5.400000000000000000e+02 2.600000000000000000e+01
5.430000000000000000e+02 2.600000000000000000e+01
6.240000000000000000e+02 2.600000000000000000e+01
6.270000000000000000e+02 2.600000000000000000e+01
7.060000000000000000e+02 2.600000000000000000e+01
7.090000000000000000e+02 2.600000000000000000e+01
7.880000000000000000e+02 2.600000000000000000e+01
7.910000000000000000e+02 2.600000000000000000e+01
5.400000000000000000e+02 2.700000000000000000e+01
5.430000000000000000e+02 2.700000000000000000e+01
6.240000000000000000e+02 2.700000000000000000e+01
6.270000000000000000e+02 2.700000000000000000e+01
7.060000000000000000e+02 2.700000000000000000e+01
7.090000000000000000e+02 2.700000000000000000e+01
7.880000000000000000e+02 2.700000000000000000e+01
7.910000000000000000e+02 2.700000000000000000e+01
5.400000000000000000e+02 2.800000000000000000e+01
5.430000000000000000e+02 2.800000000000000000e+01
6.240000000000000000e+02 2.800000000000000000e+01
6.270000000000000000e+02 2.800000000000000000e+01
7.060000000000000000e+02 2.800000000000000000e+01
7.090000000000000000e+02 2.800000000000000000e+01
7.880000000000000000e+02 2.800000000000000000e+01
7.910000000000000000e+02 2.800000000000000000e+01
5.400000000000000000e+02 2.900000000000000000e+01
5.430000000000000000e+02 2.900000000000000000e+01
6.240000000000000000e+02 2.900000000000000000e+01
6.270000000000000000e+02 2.900000000000000000e+01
7.060000000000000000e+02 2.900000000000000000e+01
7.090000000000000000e+02 2.900000000000000000e+01
7.880000000000000000e+02 2.900000000000000000e+01
7.910000000000000000e+02 2.900000000000000000e+01
5.400000000000000000e+02 3.000000000000000000e+01
5.430000000000000000e+02 3.000000000000000000e+01
6.240000000000000000e+02 3.000000000000000000e+01
6.270000000000000000e+02 3.000000000000000000e+01
7.060000000000000000e+02 3.000000000000000000e+01
7.090000000000000000e+02 3.000000000000000000e+01
7.880000000000000000e+02 3.000000000000000000e+01
7.910000000000000000e+02 3.000000000000000000e+01
5.400000000000000000e+02 3.100000000000000000e+01
5.430000000000000000e+02 3.100000000000000000e+01
6.240000000000000000e+02 3.100000000000000000e+01
6.270000000000000000e+02 3.100000000000000000e+01
7.060000000000000000e+02 3.100000000000000000e+01
7.090000000000000000e+02 3.100000000000000000e+01
7.880000000000000000e+02 3.100000000000000000e+01
7.910000000000000000e+02 3.100000000000000000e+01
5.400000000000000000e+02 3.200000000000000000e+01
5.430000000000000000e+02 3.200000000000000000e+01
6.240000000000000000e+02 3.200000000000000000e+01
6.270000000000000000e+02 3.200000000000000000e+01
7.060000000000000000e+02 3.200000000000000000e+01
7.090000000000000000e+02 3.200000000000000000e+01
7.880000000000000000e+02 3.200000000000000000e+01
7.910000000000000000e+02 3.200000000000000000e+01
5.400000000000000000e+02 3.300000000000000000e+01
5.430000000000000000e+02 3.300000000000000000e+01
6.240000000000000000e+02 3.300000000000000000e+01
6.270000000000000000e+02 3.300000000000000000e+01
7.060000000000000000e+02 3.300000000000000000e+01
7.090000000000000000e+02 3.300000000000000000e+01
7.880000000000000000e+02 3.300000000000000000e+01
7.910000000000000000e+02 3.300000000000000000e+01
5.400000000000000000e+02 3.400000000000000000e+01
5.430000000000000000e+02 3.400000000000000000e+01
6.240000000000000000e+02 3.400000000000000000e+01
6.270000000000000000e+02 3.400000000000000000e+01
7.060000000000000000e+02 3.400000000000000000e+01
7.090000000000000000e+02 3.400000000000000000e+01
7.880000000000000000e+02 3.400000000000000000e+01
7.910000000000000000e+02 3.400000000000000000e+01
5.400000000000000000e+02 3.500000000000000000e+01
5.430000000000000000e+02 3.500000000000000000e+01
6.240000000000000000e+02 3.500000000000000000e+01
6.270000000000000000e+02 3.500000000000000000e+01
7.060000000000000000e+02 3.500000000000000000e+01
7.090000000000000000e+02 3.500000000000000000e+01
7.880000000000000000e+02 3.500000000000000000e+01
7.910000000000000000e+02 3.500000000000000000e+01
5.400000000000000000e+02 3.600000000000000000e+01
5.430000000000000000e+02 3.600000000000000000e+01
6.240000000000000000e+02 3.600000000000000000e+01
6.270000000000000000e+02 3.600000000000000000e+01
7.060000000000000000e+02 3.600000000000000000e+01
7.090000000000000000e+02 3.600000000000000000e+01
7.880000000000000000e+02 3.600000000000000000e+01
7.910000000000000000e+02 3.600000000000000000e+01
5.400000000000000000e+02 3.700000000000000000e+01
5.430000000000000000e+02 3.700000000000000000e+01
6.240000000000000000e+02 3.700000000000000000e+01
6.270000000000000000e+02 3.700000000000000000e+01
7.060000000000000000e+02 3.700000000000000000e+01
7.090000000000000000e+02 3.700000000000000000e+01
7.880000000000000000e+02 3.700000000000000000e+01
7.910000000000000000e+02 3.700000000000000000e+01
5.400000000000000000e+02 3.800000000000000000e+01
5.430000000000000000e+02 3.800000000000000000e+01
6.240000000000000000e+02 3.800000000000000000e+01
6.270000000000000000e+02 3.800000000000000000e+01
7.060000000000000000e+02 3.800000000000000000e+01
7.090000000000000000e+02 3.800000000000000000e+01
7.880000000000000000e+02 3.800000000000000000e+01
7.910000000000000000e+02 3.800000000000000000e+01
5.400000000000000000e+02 3.900000000000000000e+01
5.420000000000000000e+02 3.900000000000000000e+01
6.240000000000000000e+02 3.900000000000000000e+01
6.270000000000000000e+02 3.900000000000000000e+01
7.060000000000000000e+02 3.900000000000000000e+01
7.080000000000000000e+02 3.900000000000000000e+01
7.890000000000000000e+02 3.900000000000000000e+01
7.910000000000000000e+02 3.900000000000000000e+01
5.400000000000000000e+02 4.000000000000000000e+01
5.420000000000000000e+02 4.000000000000000000e+01
6.240000000000000000e+02 4.000000000000000000e+01
6.270000000000000000e+02 4.000000000000000000e+01
7.060000000000000000e+02 4.000000000000000000e+01
7.080000000000000000e+02 4.000000000000000000e+01
7.890000000000000000e+02 4.000000000000000000e+01
7.910000000000000000e+02 4.000000000000000000e+01
5.400000000000000000e+02 4.100000000000000000e+01
5.420000000000000000e+02 4.100000000000000000e+01
6.240000000000000000e+02 4.100000000000000000e+01
6.270000000000000000e+02 4.100000000000000000e+01
7.060000000000000000e+02 4.100000000000000000e+01
7.080000000000000000e+02 4.100000000000000000e+01
7.890000000000000000e+02 4.100000000000000000e+01
7.910000000000000000e+02 4.100000000000000000e+01
5.400000000000000000e+02 4.200000000000000000e+01
5.420000000000000000e+02 4.200000000000000000e+01
6.240000000000000000e+02 4.200000000000000000e+01
6.270000000000000000e+02 4.200000000000000000e+01
7.060000000000000000e+02 4.200000000000000000e+01
7.080000000000000000e+02 4.200000000000000000e+01
7.890000000000000000e+02 4.200000000000000000e+01
7.910000000000000000e+02 4.200000000000000000e+01
5.400000000000000000e+02 4.300000000000000000e+01
5.420000000000000000e+02 4.300000000000000000e+01
6.240000000000000000e+02 4.300000000000000000e+01
6.270000000000000000e+02 4.300000000000000000e+01
7.060000000000000000e+02 4.300000000000000000e+01
7.080000000000000000e+02 4.300000000000000000e+01
7.890000000000000000e+02 4.300000000000000000e+01
7.910000000000000000e+02 4.300000000000000000e+01
5.400000000000000000e+02 4.400000000000000000e+01
5.420000000000000000e+02 4.400000000000000000e+01
6.240000000000000000e+02 4.400000000000000000e+01
6.260000000000000000e+02 4.400000000000000000e+01
6.270000000000000000e+02 4.400000000000000000e+01
7.060000000000000000e+02 4.400000000000000000e+01
7.080000000000000000e+02 4.400000000000000000e+01
7.890000000000000000e+02 4.400000000000000000e+01
7.910000000000000000e+02 4.400000000000000000e+01
5.400000000000000000e+02 4.500000000000000000e+01
5.420000000000000000e+02 4.500000000000000000e+01
6.240000000000000000e+02 4.500000000000000000e+01
6.260000000000000000e+02 4.500000000000000000e+01
7.060000000000000000e+02 4.500000000000000000e+01
7.080000000000000000e+02 4.500000000000000000e+01
7.890000000000000000e+02 4.500000000000000000e+01
7.910000000000000000e+02 4.500000000000000000e+01
5.400000000000000000e+02 4.600000000000000000e+01
5.420000000000000000e+02 4.600000000000000000e+01
6.240000000000000000e+02 4.600000000000000000e+01
6.260000000000000000e+02 4.600000000000000000e+01
7.060000000000000000e+02 4.600000000000000000e+01
7.080000000000000000e+02 4.600000000000000000e+01
7.890000000000000000e+02 4.600000000000000000e+01
7.910000000000000000e+02 4.600000000000000000e+01
5.400000000000000000e+02 4.700000000000000000e+01
5.420000000000000000e+02 4.700000000000000000e+01
6.240000000000000000e+02 4.700000000000000000e+01
6.260000000000000000e+02 4.700000000000000000e+01
7.060000000000000000e+02 4.700000000000000000e+01
7.080000000000000000e+02 4.700000000000000000e+01
7.890000000000000000e+02 4.700000000000000000e+01
7.910000000000000000e+02 4.700000000000000000e+01
5.400000000000000000e+02 4.800000000000000000e+01
5.420000000000000000e+02 4.800000000000000000e+01
6.240000000000000000e+02 4.800000000000000000e+01
6.260000000000000000e+02 4.800000000000000000e+01
7.060000000000000000e+02 4.800000000000000000e+01
7.080000000000000000e+02 4.800000000000000000e+01
7.870000000000000000e+02 4.800000000000000000e+01
7.890000000000000000e+02 4.800000000000000000e+01
7.910000000000000000e+02 4.800000000000000000e+01
5.400000000000000000e+02 4.900000000000000000e+01
5.420000000000000000e+02 4.900000000000000000e+01
6.240000000000000000e+02 4.900000000000000000e+01
6.260000000000000000e+02 4.900000000000000000e+01
7.060000000000000000e+02 4.900000000000000000e+01
7.080000000000000000e+02 4.900000000000000000e+01
7.870000000000000000e+02 4.900000000000000000e+01
7.890000000000000000e+02 4.900000000000000000e+01
7.910000000000000000e+02 4.900000000000000000e+01
5.400000000000000000e+02 5.000000000000000000e+01
5.420000000000000000e+02 5.000000000000000000e+01
6.240000000000000000e+02 5.000000000000000000e+01
6.260000000000000000e+02 5.000000000000000000e+01
7.060000000000000000e+02 5.000000000000000000e+01
7.080000000000000000e+02 5.000000000000000000e+01
7.870000000000000000e+02 5.000000000000000000e+01
7.890000000000000000e+02 5.000000000000000000e+01
7.910000000000000000e+02 5.000000000000000000e+01
5.400000000000000000e+02 5.100000000000000000e+01
5.420000000000000000e+02 5.100000000000000000e+01
6.240000000000000000e+02 5.100000000000000000e+01
6.260000000000000000e+02 5.100000000000000000e+01
7.060000000000000000e+02 5.100000000000000000e+01
7.080000000000000000e+02 5.100000000000000000e+01
7.870000000000000000e+02 5.100000000000000000e+01
7.890000000000000000e+02 5.100000000000000000e+01
7.910000000000000000e+02 5.100000000000000000e+01
5.400000000000000000e+02 5.200000000000000000e+01
5.420000000000000000e+02 5.200000000000000000e+01
6.240000000000000000e+02 5.200000000000000000e+01
6.260000000000000000e+02 5.200000000000000000e+01
7.060000000000000000e+02 5.200000000000000000e+01
7.080000000000000000e+02 5.200000000000000000e+01
7.870000000000000000e+02 5.200000000000000000e+01
7.890000000000000000e+02 5.200000000000000000e+01
7.910000000000000000e+02 5.200000000000000000e+01
5.400000000000000000e+02 5.300000000000000000e+01
5.420000000000000000e+02 5.300000000000000000e+01
6.240000000000000000e+02 5.300000000000000000e+01
6.260000000000000000e+02 5.300000000000000000e+01
7.060000000000000000e+02 5.300000000000000000e+01
7.080000000000000000e+02 5.300000000000000000e+01
7.870000000000000000e+02 5.300000000000000000e+01
7.890000000000000000e+02 5.300000000000000000e+01
7.910000000000000000e+02 5.300000000000000000e+01
5.400000000000000000e+02 5.400000000000000000e+01
5.420000000000000000e+02 5.400000000000000000e+01
6.240000000000000000e+02 5.400000000000000000e+01
6.260000000000000000e+02 5.400000000000000000e+01
7.060000000000000000e+02 5.400000000000000000e+01
7.080000000000000000e+02 5.400000000000000000e+01
7.870000000000000000e+02 5.400000000000000000e+01
7.890000000000000000e+02 5.400000000000000000e+01
7.910000000000000000e+02 5.400000000000000000e+01
5.400000000000000000e+02 5.500000000000000000e+01
5.420000000000000000e+02 5.500000000000000000e+01
6.240000000000000000e+02 5.500000000000000000e+01
6.260000000000000000e+02 5.500000000000000000e+01
7.060000000000000000e+02 5.500000000000000000e+01
7.080000000000000000e+02 5.500000000000000000e+01
7.870000000000000000e+02 5.500000000000000000e+01
7.880000000000000000e+02 5.500000000000000000e+01
7.890000000000000000e+02 5.500000000000000000e+01
7.910000000000000000e+02 5.500000000000000000e+01
5.400000000000000000e+02 5.600000000000000000e+01
5.420000000000000000e+02 5.600000000000000000e+01
6.240000000000000000e+02 5.600000000000000000e+01
6.260000000000000000e+02 5.600000000000000000e+01
7.060000000000000000e+02 5.600000000000000000e+01
7.080000000000000000e+02 5.600000000000000000e+01
7.870000000000000000e+02 5.600000000000000000e+01
7.880000000000000000e+02 5.600000000000000000e+01
7.890000000000000000e+02 5.600000000000000000e+01
7.910000000000000000e+02 5.600000000000000000e+01
5.400000000000000000e+02 5.700000000000000000e+01
5.420000000000000000e+02 5.700000000000000000e+01
6.240000000000000000e+02 5.700000000000000000e+01
6.260000000000000000e+02 5.700000000000000000e+01
7.060000000000000000e+02 5.700000000000000000e+01
7.080000000000000000e+02 5.700000000000000000e+01
7.870000000000000000e+02 5.700000000000000000e+01
7.880000000000000000e+02 5.700000000000000000e+01
7.890000000000000000e+02 5.700000000000000000e+01
7.900000000000000000e+02 5.700000000000000000e+01
5.400000000000000000e+02 5.800000000000000000e+01
5.420000000000000000e+02 5.800000000000000000e+01
6.240000000000000000e+02 5.800000000000000000e+01
6.260000000000000000e+02 5.800000000000000000e+01
7.060000000000000000e+02 5.800000000000000000e+01
7.080000000000000000e+02 5.800000000000000000e+01
7.870000000000000000e+02 5.800000000000000000e+01
7.880000000000000000e+02 5.800000000000000000e+01
7.890000000000000000e+02 5.800000000000000000e+01
7.900000000000000000e+02 5.800000000000000000e+01
5.400000000000000000e+02 5.900000000000000000e+01
5.420000000000000000e+02 5.900000000000000000e+01
6.240000000000000000e+02 5.900000000000000000e+01
6.260000000000000000e+02 5.900000000000000000e+01
7.060000000000000000e+02 5.900000000000000000e+01
7.080000000000000000e+02 5.900000000000000000e+01
7.870000000000000000e+02 5.900000000000000000e+01
7.880000000000000000e+02 5.900000000000000000e+01
7.890000000000000000e+02 5.900000000000000000e+01
7.900000000000000000e+02 5.900000000000000000e+01
5.400000000000000000e+02 6.000000000000000000e+01
5.420000000000000000e+02 6.000000000000000000e+01
6.240000000000000000e+02 6.000000000000000000e+01
6.260000000000000000e+02 6.000000000000000000e+01
7.060000000000000000e+02 6.000000000000000000e+01
7.080000000000000000e+02 6.000000000000000000e+01
7.870000000000000000e+02 6.000000000000000000e+01
7.880000000000000000e+02 6.000000000000000000e+01
7.890000000000000000e+02 6.000000000000000000e+01
7.900000000000000000e+02 6.000000000000000000e+01
5.400000000000000000e+02 6.100000000000000000e+01
5.420000000000000000e+02 6.100000000000000000e+01
6.240000000000000000e+02 6.100000000000000000e+01
6.260000000000000000e+02 6.100000000000000000e+01
7.060000000000000000e+02 6.100000000000000000e+01
7.080000000000000000e+02 6.100000000000000000e+01
7.870000000000000000e+02 6.100000000000000000e+01
7.880000000000000000e+02 6.100000000000000000e+01
7.890000000000000000e+02 6.100000000000000000e+01
7.900000000000000000e+02 6.100000000000000000e+01
5.400000000000000000e+02 6.200000000000000000e+01
5.420000000000000000e+02 6.200000000000000000e+01
6.240000000000000000e+02 6.200000000000000000e+01
6.260000000000000000e+02 6.200000000000000000e+01
7.070000000000000000e+02 6.200000000000000000e+01
7.080000000000000000e+02 6.200000000000000000e+01
7.870000000000000000e+02 6.200000000000000000e+01
7.880000000000000000e+02 6.200000000000000000e+01
7.890000000000000000e+02 6.200000000000000000e+01
7.900000000000000000e+02 6.200000000000000000e+01
5.400000000000000000e+02 6.300000000000000000e+01
5.420000000000000000e+02 6.300000000000000000e+01
6.250000000000000000e+02 6.300000000000000000e+01
6.260000000000000000e+02 6.300000000000000000e+01
7.070000000000000000e+02 6.300000000000000000e+01
7.080000000000000000e+02 6.300000000000000000e+01
7.870000000000000000e+02 6.300000000000000000e+01
7.880000000000000000e+02 6.300000000000000000e+01
7.890000000000000000e+02 6.300000000000000000e+01
7.900000000000000000e+02 6.300000000000000000e+01
5.400000000000000000e+02 6.400000000000000000e+01
5.420000000000000000e+02 6.400000000000000000e+01
6.250000000000000000e+02 6.400000000000000000e+01
6.260000000000000000e+02 6.400000000000000000e+01
7.070000000000000000e+02 6.400000000000000000e+01
7.080000000000000000e+02 6.400000000000000000e+01
7.870000000000000000e+02 6.400000000000000000e+01
7.880000000000000000e+02 6.400000000000000000e+01
7.890000000000000000e+02 6.400000000000000000e+01
7.900000000000000000e+02 6.400000000000000000e+01
5.400000000000000000e+02 6.500000000000000000e+01
5.420000000000000000e+02 6.500000000000000000e+01
6.250000000000000000e+02 6.500000000000000000e+01
6.260000000000000000e+02 6.500000000000000000e+01
7.070000000000000000e+02 6.500000000000000000e+01
7.080000000000000000e+02 6.500000000000000000e+01
7.870000000000000000e+02 6.500000000000000000e+01
7.880000000000000000e+02 6.500000000000000000e+01
7.890000000000000000e+02 6.500000000000000000e+01
7.900000000000000000e+02 6.500000000000000000e+01
5.400000000000000000e+02 6.600000000000000000e+01
5.420000000000000000e+02 6.600000000000000000e+01
6.250000000000000000e+02 6.600000000000000000e+01
6.260000000000000000e+02 6.600000000000000000e+01
7.070000000000000000e+02 6.600000000000000000e+01
7.080000000000000000e+02 6.600000000000000000e+01
7.870000000000000000e+02 6.600000000000000000e+01
7.880000000000000000e+02 6.600000000000000000e+01
7.890000000000000000e+02 6.600000000000000000e+01
7.900000000000000000e+02 6.600000000000000000e+01
5.400000000000000000e+02 6.700000000000000000e+01
5.420000000000000000e+02 6.700000000000000000e+01
6.250000000000000000e+02 6.700000000000000000e+01
6.260000000000000000e+02 6.700000000000000000e+01
7.070000000000000000e+02 6.700000000000000000e+01
7.080000000000000000e+02 6.700000000000000000e+01
7.870000000000000000e+02 6.700000000000000000e+01
7.880000000000000000e+02 6.700000000000000000e+01
7.890000000000000000e+02 6.700000000000000000e+01
7.900000000000000000e+02 6.700000000000000000e+01
5.400000000000000000e+02 6.800000000000000000e+01
5.420000000000000000e+02 6.800000000000000000e+01
6.250000000000000000e+02 6.800000000000000000e+01
6.260000000000000000e+02 6.800000000000000000e+01
7.070000000000000000e+02 6.800000000000000000e+01
7.080000000000000000e+02 6.800000000000000000e+01
7.870000000000000000e+02 6.800000000000000000e+01
7.880000000000000000e+02 6.800000000000000000e+01
7.890000000000000000e+02 6.800000000000000000e+01
7.900000000000000000e+02 6.800000000000000000e+01
5.400000000000000000e+02 6.900000000000000000e+01
5.420000000000000000e+02 6.900000000000000000e+01
6.250000000000000000e+02 6.900000000000000000e+01
6.260000000000000000e+02 6.900000000000000000e+01
7.070000000000000000e+02 6.900000000000000000e+01
7.080000000000000000e+02 6.900000000000000000e+01
7.870000000000000000e+02 6.900000000000000000e+01
7.880000000000000000e+02 6.900000000000000000e+01
7.890000000000000000e+02 6.900000000000000000e+01
7.900000000000000000e+02 6.900000000000000000e+01
5.400000000000000000e+02 7.000000000000000000e+01
5.420000000000000000e+02 7.000000000000000000e+01
6.250000000000000000e+02 7.000000000000000000e+01
6.260000000000000000e+02 7.000000000000000000e+01
7.070000000000000000e+02 7.000000000000000000e+01
7.080000000000000000e+02 7.000000000000000000e+01
7.870000000000000000e+02 7.000000000000000000e+01
7.880000000000000000e+02 7.000000000000000000e+01
7.890000000000000000e+02 7.000000000000000000e+01
7.900000000000000000e+02 7.000000000000000000e+01
5.400000000000000000e+02 7.100000000000000000e+01
5.420000000000000000e+02 7.100000000000000000e+01
6.250000000000000000e+02 7.100000000000000000e+01
6.260000000000000000e+02 7.100000000000000000e+01
7.070000000000000000e+02 7.100000000000000000e+01
7.870000000000000000e+02 7.100000000000000000e+01
7.880000000000000000e+02 7.100000000000000000e+01
7.890000000000000000e+02 7.100000000000000000e+01
7.900000000000000000e+02 7.100000000000000000e+01
5.400000000000000000e+02 7.200000000000000000e+01
5.420000000000000000e+02 7.200000000000000000e+01
6.250000000000000000e+02 7.200000000000000000e+01
6.260000000000000000e+02 7.200000000000000000e+01
7.070000000000000000e+02 7.200000000000000000e+01
7.870000000000000000e+02 7.200000000000000000e+01
7.880000000000000000e+02 7.200000000000000000e+01
7.890000000000000000e+02 7.200000000000000000e+01
7.900000000000000000e+02 7.200000000000000000e+01
5.400000000000000000e+02 7.300000000000000000e+01
5.410000000000000000e+02 7.300000000000000000e+01
6.250000000000000000e+02 7.300000000000000000e+01
6.260000000000000000e+02 7.300000000000000000e+01
7.070000000000000000e+02 7.300000000000000000e+01
7.870000000000000000e+02 7.300000000000000000e+01
7.880000000000000000e+02 7.300000000000000000e+01
7.890000000000000000e+02 7.300000000000000000e+01
7.900000000000000000e+02 7.300000000000000000e+01
5.400000000000000000e+02 7.400000000000000000e+01
5.410000000000000000e+02 7.400000000000000000e+01
6.250000000000000000e+02 7.400000000000000000e+01
6.260000000000000000e+02 7.400000000000000000e+01
7.070000000000000000e+02 7.400000000000000000e+01
7.870000000000000000e+02 7.400000000000000000e+01
7.880000000000000000e+02 7.400000000000000000e+01
7.890000000000000000e+02 7.400000000000000000e+01
7.900000000000000000e+02 7.400000000000000000e+01
5.400000000000000000e+02 7.500000000000000000e+01
5.410000000000000000e+02 7.500000000000000000e+01
6.250000000000000000e+02 7.500000000000000000e+01
6.260000000000000000e+02 7.500000000000000000e+01
7.070000000000000000e+02 7.500000000000000000e+01
7.870000000000000000e+02 7.500000000000000000e+01
7.880000000000000000e+02 7.500000000000000000e+01
7.890000000000000000e+02 7.500000000000000000e+01
7.900000000000000000e+02 7.500000000000000000e+01
5.400000000000000000e+02 7.600000000000000000e+01
5.410000000000000000e+02 7.600000000000000000e+01
6.250000000000000000e+02 7.600000000000000000e+01
6.260000000000000000e+02 7.600000000000000000e+01
7.070000000000000000e+02 7.600000000000000000e+01
7.870000000000000000e+02 7.600000000000000000e+01
7.880000000000000000e+02 7.600000000000000000e+01
7.890000000000000000e+02 7.600000000000000000e+01
7.900000000000000000e+02 7.600000000000000000e+01
5.400000000000000000e+02 7.700000000000000000e+01
5.410000000000000000e+02 7.700000000000000000e+01
6.250000000000000000e+02 7.700000000000000000e+01
6.260000000000000000e+02 7.700000000000000000e+01
7.070000000000000000e+02 7.700000000000000000e+01
7.870000000000000000e+02 7.700000000000000000e+01
7.880000000000000000e+02 7.700000000000000000e+01
7.890000000000000000e+02 7.700000000000000000e+01
7.900000000000000000e+02 7.700000000000000000e+01
5.400000000000000000e+02 7.800000000000000000e+01
5.410000000000000000e+02 7.800000000000000000e+01
6.250000000000000000e+02 7.800000000000000000e+01
6.260000000000000000e+02 7.800000000000000000e+01
7.070000000000000000e+02 7.800000000000000000e+01
7.870000000000000000e+02 7.800000000000000000e+01
7.880000000000000000e+02 7.800000000000000000e+01
7.890000000000000000e+02 7.800000000000000000e+01
7.900000000000000000e+02 7.800000000000000000e+01
5.400000000000000000e+02 7.900000000000000000e+01
5.410000000000000000e+02 7.900000000000000000e+01
6.250000000000000000e+02 7.900000000000000000e+01
6.260000000000000000e+02 7.900000000000000000e+01
7.070000000000000000e+02 7.900000000000000000e+01
7.870000000000000000e+02 7.900000000000000000e+01
7.880000000000000000e+02 7.900000000000000000e+01
7.890000000000000000e+02 7.900000000000000000e+01
7.900000000000000000e+02 7.900000000000000000e+01
5.400000000000000000e+02 8.000000000000000000e+01
5.410000000000000000e+02 8.000000000000000000e+01
6.250000000000000000e+02 8.000000000000000000e+01
6.260000000000000000e+02 8.000000000000000000e+01
7.870000000000000000e+02 8.000000000000000000e+01
7.880000000000000000e+02 8.000000000000000000e+01
7.890000000000000000e+02 8.000000000000000000e+01
7.900000000000000000e+02 8.000000000000000000e+01
5.400000000000000000e+02 8.100000000000000000e+01
5.410000000000000000e+02 8.100000000000000000e+01
6.250000000000000000e+02 8.100000000000000000e+01
6.260000000000000000e+02 8.100000000000000000e+01
7.870000000000000000e+02 8.100000000000000000e+01
7.880000000000000000e+02 8.100000000000000000e+01
7.890000000000000000e+02 8.100000000000000000e+01
7.900000000000000000e+02 8.100000000000000000e+01
5.400000000000000000e+02 8.200000000000000000e+01
5.410000000000000000e+02 8.200000000000000000e+01
6.250000000000000000e+02 8.200000000000000000e+01
7.870000000000000000e+02 8.200000000000000000e+01
7.880000000000000000e+02 8.200000000000000000e+01
7.890000000000000000e+02 8.200000000000000000e+01
7.900000000000000000e+02 8.200000000000000000e+01
5.400000000000000000e+02 8.300000000000000000e+01
5.410000000000000000e+02 8.300000000000000000e+01
6.250000000000000000e+02 8.300000000000000000e+01
7.870000000000000000e+02 8.300000000000000000e+01
7.880000000000000000e+02 8.300000000000000000e+01
7.890000000000000000e+02 8.300000000000000000e+01
7.900000000000000000e+02 8.300000000000000000e+01
5.410000000000000000e+02 8.400000000000000000e+01
6.250000000000000000e+02 8.400000000000000000e+01
7.870000000000000000e+02 8.400000000000000000e+01
7.880000000000000000e+02 8.400000000000000000e+01
7.890000000000000000e+02 8.400000000000000000e+01
7.900000000000000000e+02 8.400000000000000000e+01
5.410000000000000000e+02 8.500000000000000000e+01
6.250000000000000000e+02 8.500000000000000000e+01
7.870000000000000000e+02 8.500000000000000000e+01
7.880000000000000000e+02 8.500000000000000000e+01
7.890000000000000000e+02 8.500000000000000000e+01
7.900000000000000000e+02 8.500000000000000000e+01
5.410000000000000000e+02 8.600000000000000000e+01
6.250000000000000000e+02 8.600000000000000000e+01
7.870000000000000000e+02 8.600000000000000000e+01
7.880000000000000000e+02 8.600000000000000000e+01
7.890000000000000000e+02 8.600000000000000000e+01
7.900000000000000000e+02 8.600000000000000000e+01
5.410000000000000000e+02 8.700000000000000000e+01
6.250000000000000000e+02 8.700000000000000000e+01
7.870000000000000000e+02 8.700000000000000000e+01
7.880000000000000000e+02 8.700000000000000000e+01
7.890000000000000000e+02 8.700000000000000000e+01
7.900000000000000000e+02 8.700000000000000000e+01
5.410000000000000000e+02 8.800000000000000000e+01
6.250000000000000000e+02 8.800000000000000000e+01
7.860000000000000000e+02 8.800000000000000000e+01
7.880000000000000000e+02 8.800000000000000000e+01
7.890000000000000000e+02 8.800000000000000000e+01
7.900000000000000000e+02 8.800000000000000000e+01
5.410000000000000000e+02 8.900000000000000000e+01
6.250000000000000000e+02 8.900000000000000000e+01
7.860000000000000000e+02 8.900000000000000000e+01
7.880000000000000000e+02 8.900000000000000000e+01
7.890000000000000000e+02 8.900000000000000000e+01
7.900000000000000000e+02 8.900000000000000000e+01
5.410000000000000000e+02 9.000000000000000000e+01
6.250000000000000000e+02 9.000000000000000000e+01
7.860000000000000000e+02 9.000000000000000000e+01
7.880000000000000000e+02 9.000000000000000000e+01
7.890000000000000000e+02 9.000000000000000000e+01
7.900000000000000000e+02 9.000000000000000000e+01
6.250000000000000000e+02 9.100000000000000000e+01
7.860000000000000000e+02 9.100000000000000000e+01
7.880000000000000000e+02 9.100000000000000000e+01
7.890000000000000000e+02 9.100000000000000000e+01
7.900000000000000000e+02 9.100000000000000000e+01
5.390000000000000000e+02 9.200000000000000000e+01
6.230000000000000000e+02 9.200000000000000000e+01
7.050000000000000000e+02 9.200000000000000000e+01
7.860000000000000000e+02 9.200000000000000000e+01
7.880000000000000000e+02 9.200000000000000000e+01
7.890000000000000000e+02 9.200000000000000000e+01
7.900000000000000000e+02 9.200000000000000000e+01
5.380000000000000000e+02 9.300000000000000000e+01
5.390000000000000000e+02 9.300000000000000000e+01
6.230000000000000000e+02 9.300000000000000000e+01
7.050000000000000000e+02 9.300000000000000000e+01
7.860000000000000000e+02 9.300000000000000000e+01
7.880000000000000000e+02 9.300000000000000000e+01
7.890000000000000000e+02 9.300000000000000000e+01
7.900000000000000000e+02 9.300000000000000000e+01
