1.140000000000000000e+02 1.300000000000000000e+01
1.150000000000000000e+02 1.300000000000000000e+01
9.000000000000000000e+00 1.400000000000000000e+01
1.140000000000000000e+02 1.400000000000000000e+01
1.150000000000000000e+02 1.400000000000000000e+01
9.000000000000000000e+00 1.500000000000000000e+01
1.000000000000000000e+01 1.500000000000000000e+01
1.140000000000000000e+02 1.500000000000000000e+01
1.150000000000000000e+02 1.500000000000000000e+01
2.190000000000000000e+02 1.500000000000000000e+01
9.000000000000000000e+00 1.600000000000000000e+01
1.000000000000000000e+01 1.600000000000000000e+01
1.140000000000000000e+02 1.600000000000000000e+01
1.150000000000000000e+02 1.600000000000000000e+01
2.180000000000000000e+02 1.600000000000000000e+01
2.190000000000000000e+02 1.600000000000000000e+01
9.000000000000000000e+00 1.700000000000000000e+01
1.000000000000000000e+01 1.700000000000000000e+01
1.140000000000000000e+02 1.700000000000000000e+01
1.150000000000000000e+02 1.700000000000000000e+01
2.180000000000000000e+02 1.700000000000000000e+01
2.190000000000000000e+02 1.700000000000000000e+01
9.000000000000000000e+00 1.800000000000000000e+01
1.000000000000000000e+01 1.800000000000000000e+01
1.140000000000000000e+02 1.800000000000000000e+01
1.150000000000000000e+02 1.800000000000000000e+01
2.180000000000000000e+02 1.800000000000000000e+01
2.190000000000000000e+02 1.800000000000000000e+01
9.000000000000000000e+00 1.900000000000000000e+01
1.000000000000000000e+01 1.900000000000000000e+01
1.140000000000000000e+02 1.900000000000000000e+01
1.150000000000000000e+02 1.900000000000000000e+01
2.180000000000000000e+02 1.900000000000000000e+01
2.190000000000000000e+02 1.900000000000000000e+01
9.000000000000000000e+00 2.000000000000000000e+01
1.000000000000000000e+01 2.000000000000000000e+01
1.140000000000000000e+02 2.000000000000000000e+01
1.150000000000000000e+02 2.000000000000000000e+01
2.180000000000000000e+02 2.000000000000000000e+01
2.190000000000000000e+02 2.000000000000000000e+01
9.000000000000000000e+00 2.100000000000000000e+01
1.000000000000000000e+01 2.100000000000000000e+01
1.140000000000000000e+02 2.100000000000000000e+01
1.150000000000000000e+02 2.100000000000000000e+01
2.180000000000000000e+02 2.100000000000000000e+01
2.190000000000000000e+02 2.100000000000000000e+01
9.000000000000000000e+00 2.200000000000000000e+01
1.000000000000000000e+01 2.200000000000000000e+01
1.140000000000000000e+02 2.200000000000000000e+01
1.150000000000000000e+02 2.200000000000000000e+01
2.180000000000000000e+02 2.200000000000000000e+01
2.190000000000000000e+02 2.200000000000000000e+01
9.000000000000000000e+00 2.300000000000000000e+01
1.000000000000000000e+01 2.300000000000000000e+01
1.140000000000000000e+02 2.300000000000000000e+01
1.150000000000000000e+02 2.300000000000000000e+01
2.180000000000000000e+02 2.300000000000000000e+01
2.190000000000000000e+02 2.300000000000000000e+01
9.000000000000000000e+00 2.400000000000000000e+01
1.000000000000000000e+01 2.400000000000000000e+01
1.140000000000000000e+02 2.400000000000000000e+01
1.150000000000000000e+02 2.400000000000000000e+01
2.180000000000000000e+02 2.400000000000000000e+01
2.190000000000000000e+02 2.400000000000000000e+01
9.000000000000000000e+00 2.500000000000000000e+01
1.000000000000000000e+01 2.500000000000000000e+01
1.140000000000000000e+02 2.500000000000000000e+01
1.150000000000000000e+02 2.500000000000000000e+01
2.180000000000000000e+02 2.500000000000000000e+01
2.190000000000000000e+02 2.500000000000000000e+01
9.000000000000000000e+00 2.600000000000000000e+01
1.000000000000000000e+01 2.600000000000000000e+01
1.140000000000000000e+02 2.600000000000000000e+01
1.150000000000000000e+02 2.600000000000000000e+01
2.180000000000000000e+02 2.600000000000000000e+01
2.190000000000000000e+02 2.600000000000000000e+01
9.000000000000000000e+00 2.700000000000000000e+01
1.000000000000000000e+01 2.700000000000000000e+01
1.140000000000000000e+02 2.700000000000000000e+01
1.150000000000000000e+02 2.700000000000000000e+01
2.180000000000000000e+02 2.700000000000000000e+01
2.190000000000000000e+02 2.700000000000000000e+01
9.000000000000000000e+00 2.800000000000000000e+01
1.000000000000000000e+01 2.800000000000000000e+01
1.140000000000000000e+02 2.800000000000000000e+01
1.150000000000000000e+02 2.800000000000000000e+01
2.180000000000000000e+02 2.800000000000000000e+01
2.190000000000000000e+02 2.800000000000000000e+01
9.000000000000000000e+00 2.900000000000000000e+01
1.000000000000000000e+01 2.900000000000000000e+01
1.140000000000000000e+02 2.900000000000000000e+01
1.150000000000000000e+02 2.900000000000000000e+01
2.180000000000000000e+02 2.900000000000000000e+01
2.190000000000000000e+02 2.900000000000000000e+01
9.000000000000000000e+00 3.000000000000000000e+01
1.000000000000000000e+01 3.000000000000000000e+01
1.140000000000000000e+02 3.000000000000000000e+01
1.150000000000000000e+02 3.000000000000000000e+01
2.180000000000000000e+02 3.000000000000000000e+01
2.190000000000000000e+02 3.000000000000000000e+01
8.000000000000000000e+00 3.100000000000000000e+01
1.000000000000000000e+01 3.100000000000000000e+01
1.140000000000000000e+02 3.100000000000000000e+01
1.150000000000000000e+02 3.100000000000000000e+01
2.180000000000000000e+02 3.100000000000000000e+01
2.190000000000000000e+02 3.100000000000000000e+01
8.000000000000000000e+00 3.200000000000000000e+01
1.000000000000000000e+01 3.200000000000000000e+01
1.140000000000000000e+02 3.200000000000000000e+01
1.150000000000000000e+02 3.200000000000000000e+01
2.180000000000000000e+02 3.200000000000000000e+01
2.190000000000000000e+02 3.200000000000000000e+01
8.000000000000000000e+00 3.300000000000000000e+01
1.000000000000000000e+01 3.300000000000000000e+01
1.140000000000000000e+02 3.300000000000000000e+01
1.150000000000000000e+02 3.300000000000000000e+01
2.180000000000000000e+02 3.300000000000000000e+01
2.190000000000000000e+02 3.300000000000000000e+01
8.000000000000000000e+00 3.400000000000000000e+01
1.000000000000000000e+01 3.400000000000000000e+01
1.140000000000000000e+02 3.400000000000000000e+01
1.150000000000000000e+02 3.400000000000000000e+01
2.180000000000000000e+02 3.400000000000000000e+01
2.190000000000000000e+02 3.400000000000000000e+01
8.000000000000000000e+00 3.500000000000000000e+01
1.000000000000000000e+01 3.500000000000000000e+01
1.140000000000000000e+02 3.500000000000000000e+01
1.150000000000000000e+02 3.500000000000000000e+01
2.180000000000000000e+02 3.500000000000000000e+01
2.190000000000000000e+02 3.500000000000000000e+01
8.000000000000000000e+00 3.600000000000000000e+01
1.000000000000000000e+01 3.600000000000000000e+01
1.140000000000000000e+02 3.600000000000000000e+01
1.150000000000000000e+02 3.600000000000000000e+01
2.180000000000000000e+02 3.600000000000000000e+01
2.190000000000000000e+02 3.600000000000000000e+01
8.000000000000000000e+00 3.700000000000000000e+01
1.000000000000000000e+01 3.700000000000000000e+01
1.140000000000000000e+02 3.700000000000000000e+01
1.150000000000000000e+02 3.700000000000000000e+01
2.180000000000000000e+02 3.700000000000000000e+01
2.190000000000000000e+02 3.700000000000000000e+01
8.000000000000000000e+00 3.800000000000000000e+01
1.000000000000000000e+01 3.800000000000000000e+01
1.140000000000000000e+02 3.800000000000000000e+01
1.150000000000000000e+02 3.800000000000000000e+01
2.180000000000000000e+02 3.800000000000000000e+01
2.190000000000000000e+02 3.800000000000000000e+01
8.000000000000000000e+00 3.900000000000000000e+01
1.000000000000000000e+01 3.900000000000000000e+01
1.140000000000000000e+02 3.900000000000000000e+01
1.150000000000000000e+02 3.900000000000000000e+01
2.180000000000000000e+02 3.900000000000000000e+01
2.190000000000000000e+02 3.900000000000000000e+01
8.000000000000000000e+00 4.000000000000000000e+01
1.000000000000000000e+01 4.000000000000000000e+01
1.140000000000000000e+02 4.000000000000000000e+01
1.150000000000000000e+02 4.000000000000000000e+01
2.180000000000000000e+02 4.000000000000000000e+01
2.190000000000000000e+02 4.000000000000000000e+01
8.000000000000000000e+00 4.100000000000000000e+01
1.000000000000000000e+01 4.100000000000000000e+01
1.140000000000000000e+02 4.100000000000000000e+01
1.150000000000000000e+02 4.100000000000000000e+01
2.170000000000000000e+02 4.100000000000000000e+01
2.190000000000000000e+02 4.100000000000000000e+01
8.000000000000000000e+00 4.200000000000000000e+01
1.000000000000000000e+01 4.200000000000000000e+01
1.140000000000000000e+02 4.200000000000000000e+01
1.150000000000000000e+02 4.200000000000000000e+01
2.170000000000000000e+02 4.200000000000000000e+01
2.190000000000000000e+02 4.200000000000000000e+01
8.000000000000000000e+00 4.300000000000000000e+01
1.000000000000000000e+01 4.300000000000000000e+01
1.140000000000000000e+02 4.300000000000000000e+01
1.150000000000000000e+02 4.300000000000000000e+01
2.170000000000000000e+02 4.300000000000000000e+01
2.190000000000000000e+02 4.300000000000000000e+01
8.000000000000000000e+00 4.400000000000000000e+01
1.000000000000000000e+01 4.400000000000000000e+01
1.130000000000000000e+02 4.400000000000000000e+01
1.150000000000000000e+02 4.400000000000000000e+01
2.170000000000000000e+02 4.400000000000000000e+01
2.190000000000000000e+02 4.400000000000000000e+01
8.000000000000000000e+00 4.500000000000000000e+01
1.000000000000000000e+01 4.500000000000000000e+01
1.130000000000000000e+02 4.500000000000000000e+01
1.150000000000000000e+02 4.500000000000000000e+01
2.170000000000000000e+02 4.500000000000000000e+01
2.190000000000000000e+02 4.500000000000000000e+01
8.000000000000000000e+00 4.600000000000000000e+01
1.000000000000000000e+01 4.600000000000000000e+01
1.130000000000000000e+02 4.600000000000000000e+01
1.150000000000000000e+02 4.600000000000000000e+01
2.170000000000000000e+02 4.600000000000000000e+01
2.190000000000000000e+02 4.600000000000000000e+01
8.000000000000000000e+00 4.700000000000000000e+01
1.000000000000000000e+01 4.700000000000000000e+01
1.130000000000000000e+02 4.700000000000000000e+01
1.150000000000000000e+02 4.700000000000000000e+01
2.170000000000000000e+02 4.700000000000000000e+01
2.190000000000000000e+02 4.700000000000000000e+01
8.000000000000000000e+00 4.800000000000000000e+01
1.000000000000000000e+01 4.800000000000000000e+01
1.130000000000000000e+02 4.800000000000000000e+01
1.150000000000000000e+02 4.800000000000000000e+01
2.170000000000000000e+02 4.800000000000000000e+01
2.190000000000000000e+02 4.800000000000000000e+01
8.000000000000000000e+00 4.900000000000000000e+01
1.000000000000000000e+01 4.900000000000000000e+01
1.130000000000000000e+02 4.900000000000000000e+01
1.150000000000000000e+02 4.900000000000000000e+01
2.170000000000000000e+02 4.900000000000000000e+01
2.190000000000000000e+02 4.900000000000000000e+01
8.000000000000000000e+00 5.000000000000000000e+01
1.000000000000000000e+01 5.000000000000000000e+01
1.130000000000000000e+02 5.000000000000000000e+01
1.150000000000000000e+02 5.000000000000000000e+01
2.170000000000000000e+02 5.000000000000000000e+01
2.190000000000000000e+02 5.000000000000000000e+01
8.000000000000000000e+00 5.100000000000000000e+01
1.000000000000000000e+01 5.100000000000000000e+01
1.130000000000000000e+02 5.100000000000000000e+01
1.150000000000000000e+02 5.100000000000000000e+01
2.170000000000000000e+02 5.100000000000000000e+01
2.190000000000000000e+02 5.100000000000000000e+01
8.000000000000000000e+00 5.200000000000000000e+01
1.000000000000000000e+01 5.200000000000000000e+01
1.130000000000000000e+02 5.200000000000000000e+01
1.150000000000000000e+02 5.200000000000000000e+01
2.170000000000000000e+02 5.200000000000000000e+01
2.190000000000000000e+02 5.200000000000000000e+01
8.000000000000000000e+00 5.300000000000000000e+01
1.000000000000000000e+01 5.300000000000000000e+01
1.130000000000000000e+02 5.300000000000000000e+01
1.150000000000000000e+02 5.300000000000000000e+01
2.170000000000000000e+02 5.300000000000000000e+01
2.190000000000000000e+02 5.300000000000000000e+01
8.000000000000000000e+00 5.400000000000000000e+01
1.000000000000000000e+01 5.400000000000000000e+01
1.130000000000000000e+02 5.400000000000000000e+01
1.160000000000000000e+02 5.400000000000000000e+01
2.170000000000000000e+02 5.400000000000000000e+01
2.190000000000000000e+02 5.400000000000000000e+01
8.000000000000000000e+00 5.500000000000000000e+01
1.000000000000000000e+01 5.500000000000000000e+01
1.130000000000000000e+02 5.500000000000000000e+01
1.160000000000000000e+02 5.500000000000000000e+01
2.170000000000000000e+02 5.500000000000000000e+01
2.190000000000000000e+02 5.500000000000000000e+01
8.000000000000000000e+00 5.600000000000000000e+01
1.000000000000000000e+01 5.600000000000000000e+01
1.130000000000000000e+02 5.600000000000000000e+01
1.160000000000000000e+02 5.600000000000000000e+01
2.170000000000000000e+02 5.600000000000000000e+01
2.190000000000000000e+02 5.600000000000000000e+01
8.000000000000000000e+00 5.700000000000000000e+01
1.000000000000000000e+01 5.700000000000000000e+01
1.130000000000000000e+02 5.700000000000000000e+01
1.160000000000000000e+02 5.700000000000000000e+01
2.170000000000000000e+02 5.700000000000000000e+01
2.190000000000000000e+02 5.700000000000000000e+01
8.000000000000000000e+00 5.800000000000000000e+01
1.000000000000000000e+01 5.800000000000000000e+01
1.130000000000000000e+02 5.800000000000000000e+01
1.160000000000000000e+02 5.800000000000000000e+01
2.170000000000000000e+02 5.800000000000000000e+01
2.190000000000000000e+02 5.800000000000000000e+01
8.000000000000000000e+00 5.900000000000000000e+01
1.000000000000000000e+01 5.900000000000000000e+01
1.130000000000000000e+02 5.900000000000000000e+01
1.160000000000000000e+02 5.900000000000000000e+01
2.170000000000000000e+02 5.900000000000000000e+01
2.190000000000000000e+02 5.900000000000000000e+01
8.000000000000000000e+00 6.000000000000000000e+01
1.000000000000000000e+01 6.000000000000000000e+01
1.130000000000000000e+02 6.000000000000000000e+01
1.160000000000000000e+02 6.000000000000000000e+01
2.170000000000000000e+02 6.000000000000000000e+01
2.200000000000000000e+02 6.000000000000000000e+01
8.000000000000000000e+00 6.100000000000000000e+01
1.000000000000000000e+01 6.100000000000000000e+01
1.130000000000000000e+02 6.100000000000000000e+01
1.160000000000000000e+02 6.100000000000000000e+01
2.170000000000000000e+02 6.100000000000000000e+01
2.200000000000000000e+02 6.100000000000000000e+01
8.000000000000000000e+00 6.200000000000000000e+01
1.000000000000000000e+01 6.200000000000000000e+01
1.130000000000000000e+02 6.200000000000000000e+01
1.160000000000000000e+02 6.200000000000000000e+01
2.170000000000000000e+02 6.200000000000000000e+01
2.200000000000000000e+02 6.200000000000000000e+01
8.000000000000000000e+00 6.300000000000000000e+01
1.000000000000000000e+01 6.300000000000000000e+01
1.130000000000000000e+02 6.300000000000000000e+01
1.160000000000000000e+02 6.300000000000000000e+01
2.170000000000000000e+02 6.300000000000000000e+01
2.200000000000000000e+02 6.300000000000000000e+01
8.000000000000000000e+00 6.400000000000000000e+01
1.000000000000000000e+01 6.400000000000000000e+01
1.130000000000000000e+02 6.400000000000000000e+01
1.160000000000000000e+02 6.400000000000000000e+01
2.170000000000000000e+02 6.400000000000000000e+01
2.200000000000000000e+02 6.400000000000000000e+01
8.000000000000000000e+00 6.500000000000000000e+01
1.000000000000000000e+01 6.500000000000000000e+01
1.130000000000000000e+02 6.500000000000000000e+01
1.160000000000000000e+02 6.500000000000000000e+01
2.170000000000000000e+02 6.500000000000000000e+01
2.200000000000000000e+02 6.500000000000000000e+01
8.000000000000000000e+00 6.600000000000000000e+01
1.000000000000000000e+01 6.600000000000000000e+01
1.130000000000000000e+02 6.600000000000000000e+01
1.160000000000000000e+02 6.600000000000000000e+01
2.170000000000000000e+02 6.600000000000000000e+01
2.200000000000000000e+02 6.600000000000000000e+01
8.000000000000000000e+00 6.700000000000000000e+01
1.000000000000000000e+01 6.700000000000000000e+01
1.130000000000000000e+02 6.700000000000000000e+01
1.160000000000000000e+02 6.700000000000000000e+01
2.170000000000000000e+02 6.700000000000000000e+01
2.200000000000000000e+02 6.700000000000000000e+01
8.000000000000000000e+00 6.800000000000000000e+01
1.000000000000000000e+01 6.800000000000000000e+01
1.130000000000000000e+02 6.800000000000000000e+01
1.160000000000000000e+02 6.800000000000000000e+01
2.170000000000000000e+02 6.800000000000000000e+01
2.200000000000000000e+02 6.800000000000000000e+01
8.000000000000000000e+00 6.900000000000000000e+01
1.000000000000000000e+01 6.900000000000000000e+01
1.130000000000000000e+02 6.900000000000000000e+01
1.160000000000000000e+02 6.900000000000000000e+01
2.170000000000000000e+02 6.900000000000000000e+01
2.200000000000000000e+02 6.900000000000000000e+01
8.000000000000000000e+00 7.000000000000000000e+01
1.000000000000000000e+01 7.000000000000000000e+01
1.130000000000000000e+02 7.000000000000000000e+01
1.160000000000000000e+02 7.000000000000000000e+01
2.170000000000000000e+02 7.000000000000000000e+01
2.200000000000000000e+02 7.000000000000000000e+01
8.000000000000000000e+00 7.100000000000000000e+01
1.000000000000000000e+01 7.100000000000000000e+01
1.130000000000000000e+02 7.100000000000000000e+01
1.160000000000000000e+02 7.100000000000000000e+01
2.170000000000000000e+02 7.100000000000000000e+01
2.200000000000000000e+02 7.100000000000000000e+01
8.000000000000000000e+00 7.200000000000000000e+01
1.000000000000000000e+01 7.200000000000000000e+01
1.130000000000000000e+02 7.200000000000000000e+01
1.160000000000000000e+02 7.200000000000000000e+01
2.170000000000000000e+02 7.200000000000000000e+01
2.200000000000000000e+02 7.200000000000000000e+01
8.000000000000000000e+00 7.300000000000000000e+01
1.000000000000000000e+01 7.300000000000000000e+01
1.130000000000000000e+02 7.300000000000000000e+01
1.160000000000000000e+02 7.300000000000000000e+01
2.170000000000000000e+02 7.300000000000000000e+01
2.200000000000000000e+02 7.300000000000000000e+01
3.260000000000000000e+02 7.300000000000000000e+01
3.270000000000000000e+02 7.300000000000000000e+01
3.390000000000000000e+02 7.300000000000000000e+01
3.400000000000000000e+02 7.300000000000000000e+01
3.430000000000000000e+02 7.300000000000000000e+01
3.440000000000000000e+02 7.300000000000000000e+01
6.380000000000000000e+02 7.300000000000000000e+01
6.390000000000000000e+02 7.300000000000000000e+01
6.510000000000000000e+02 7.300000000000000000e+01
6.520000000000000000e+02 7.300000000000000000e+01
6.560000000000000000e+02 7.300000000000000000e+01
6.570000000000000000e+02 7.300000000000000000e+01
6.580000000000000000e+02 7.300000000000000000e+01
6.590000000000000000e+02 7.300000000000000000e+01
6.600000000000000000e+02 7.300000000000000000e+01
6.610000000000000000e+02 7.300000000000000000e+01
8.000000000000000000e+00 7.400000000000000000e+01
1.000000000000000000e+01 7.400000000000000000e+01
1.130000000000000000e+02 7.400000000000000000e+01
1.160000000000000000e+02 7.400000000000000000e+01
2.170000000000000000e+02 7.400000000000000000e+01
2.200000000000000000e+02 7.400000000000000000e+01
3.260000000000000000e+02 7.400000000000000000e+01
3.270000000000000000e+02 7.400000000000000000e+01
3.280000000000000000e+02 7.400000000000000000e+01
3.380000000000000000e+02 7.400000000000000000e+01
3.390000000000000000e+02 7.400000000000000000e+01
3.400000000000000000e+02 7.400000000000000000e+01
3.430000000000000000e+02 7.400000000000000000e+01
3.440000000000000000e+02 7.400000000000000000e+01
6.380000000000000000e+02 7.400000000000000000e+01
6.390000000000000000e+02 7.400000000000000000e+01
6.400000000000000000e+02 7.400000000000000000e+01
6.500000000000000000e+02 7.400000000000000000e+01
6.510000000000000000e+02 7.400000000000000000e+01
6.520000000000000000e+02 7.400000000000000000e+01
6.550000000000000000e+02 7.400000000000000000e+01
6.560000000000000000e+02 7.400000000000000000e+01
6.570000000000000000e+02 7.400000000000000000e+01
6.580000000000000000e+02 7.400000000000000000e+01
6.590000000000000000e+02 7.400000000000000000e+01
6.600000000000000000e+02 7.400000000000000000e+01
6.610000000000000000e+02 7.400000000000000000e+01
6.620000000000000000e+02 7.400000000000000000e+01
8.000000000000000000e+00 7.500000000000000000e+01
1.000000000000000000e+01 7.500000000000000000e+01
1.130000000000000000e+02 7.500000000000000000e+01
1.160000000000000000e+02 7.500000000000000000e+01
2.170000000000000000e+02 7.500000000000000000e+01
2.200000000000000000e+02 7.500000000000000000e+01
3.270000000000000000e+02 7.500000000000000000e+01
3.280000000000000000e+02 7.500000000000000000e+01
3.380000000000000000e+02 7.500000000000000000e+01
3.390000000000000000e+02 7.500000000000000000e+01
3.430000000000000000e+02 7.500000000000000000e+01
3.440000000000000000e+02 7.500000000000000000e+01
6.390000000000000000e+02 7.500000000000000000e+01
6.400000000000000000e+02 7.500000000000000000e+01
6.500000000000000000e+02 7.500000000000000000e+01
6.510000000000000000e+02 7.500000000000000000e+01
6.540000000000000000e+02 7.500000000000000000e+01
6.550000000000000000e+02 7.500000000000000000e+01
6.560000000000000000e+02 7.500000000000000000e+01
6.610000000000000000e+02 7.500000000000000000e+01
6.620000000000000000e+02 7.500000000000000000e+01
6.630000000000000000e+02 7.500000000000000000e+01
8.000000000000000000e+00 7.600000000000000000e+01
1.000000000000000000e+01 7.600000000000000000e+01
1.130000000000000000e+02 7.600000000000000000e+01
1.160000000000000000e+02 7.600000000000000000e+01
2.170000000000000000e+02 7.600000000000000000e+01
2.200000000000000000e+02 7.600000000000000000e+01
3.270000000000000000e+02 7.600000000000000000e+01
3.280000000000000000e+02 7.600000000000000000e+01
3.380000000000000000e+02 7.600000000000000000e+01
3.390000000000000000e+02 7.600000000000000000e+01
3.430000000000000000e+02 7.600000000000000000e+01
3.440000000000000000e+02 7.600000000000000000e+01
6.390000000000000000e+02 7.600000000000000000e+01
6.400000000000000000e+02 7.600000000000000000e+01
6.500000000000000000e+02 7.600000000000000000e+01
6.510000000000000000e+02 7.600000000000000000e+01
6.540000000000000000e+02 7.600000000000000000e+01
6.550000000000000000e+02 7.600000000000000000e+01
6.620000000000000000e+02 7.600000000000000000e+01
6.630000000000000000e+02 7.600000000000000000e+01
8.000000000000000000e+00 7.700000000000000000e+01
1.000000000000000000e+01 7.700000000000000000e+01
1.130000000000000000e+02 7.700000000000000000e+01
1.160000000000000000e+02 7.700000000000000000e+01
2.170000000000000000e+02 7.700000000000000000e+01
2.200000000000000000e+02 7.700000000000000000e+01
3.170000000000000000e+02 7.700000000000000000e+01
3.180000000000000000e+02 7.700000000000000000e+01
3.190000000000000000e+02 7.700000000000000000e+01
3.200000000000000000e+02 7.700000000000000000e+01
3.210000000000000000e+02 7.700000000000000000e+01
3.280000000000000000e+02 7.700000000000000000e+01
3.290000000000000000e+02 7.700000000000000000e+01
3.370000000000000000e+02 7.700000000000000000e+01
3.380000000000000000e+02 7.700000000000000000e+01
3.430000000000000000e+02 7.700000000000000000e+01
3.440000000000000000e+02 7.700000000000000000e+01
6.400000000000000000e+02 7.700000000000000000e+01
6.410000000000000000e+02 7.700000000000000000e+01
6.490000000000000000e+02 7.700000000000000000e+01
6.500000000000000000e+02 7.700000000000000000e+01
6.620000000000000000e+02 7.700000000000000000e+01
6.630000000000000000e+02 7.700000000000000000e+01
7.000000000000000000e+00 7.800000000000000000e+01
1.100000000000000000e+01 7.800000000000000000e+01
1.130000000000000000e+02 7.800000000000000000e+01
1.160000000000000000e+02 7.800000000000000000e+01
2.170000000000000000e+02 7.800000000000000000e+01
2.200000000000000000e+02 7.800000000000000000e+01
3.160000000000000000e+02 7.800000000000000000e+01
3.170000000000000000e+02 7.800000000000000000e+01
3.180000000000000000e+02 7.800000000000000000e+01
3.190000000000000000e+02 7.800000000000000000e+01
3.200000000000000000e+02 7.800000000000000000e+01
3.210000000000000000e+02 7.800000000000000000e+01
3.220000000000000000e+02 7.800000000000000000e+01
3.280000000000000000e+02 7.800000000000000000e+01
3.290000000000000000e+02 7.800000000000000000e+01
3.370000000000000000e+02 7.800000000000000000e+01
3.380000000000000000e+02 7.800000000000000000e+01
3.430000000000000000e+02 7.800000000000000000e+01
3.440000000000000000e+02 7.800000000000000000e+01
6.400000000000000000e+02 7.800000000000000000e+01
6.410000000000000000e+02 7.800000000000000000e+01
6.490000000000000000e+02 7.800000000000000000e+01
6.500000000000000000e+02 7.800000000000000000e+01
6.620000000000000000e+02 7.800000000000000000e+01
6.630000000000000000e+02 7.800000000000000000e+01
7.000000000000000000e+00 7.900000000000000000e+01
1.100000000000000000e+01 7.900000000000000000e+01
1.130000000000000000e+02 7.900000000000000000e+01
1.160000000000000000e+02 7.900000000000000000e+01
2.170000000000000000e+02 7.900000000000000000e+01
2.200000000000000000e+02 7.900000000000000000e+01
3.150000000000000000e+02 7.900000000000000000e+01
3.160000000000000000e+02 7.900000000000000000e+01
3.220000000000000000e+02 7.900000000000000000e+01
3.230000000000000000e+02 7.900000000000000000e+01
3.280000000000000000e+02 7.900000000000000000e+01
3.290000000000000000e+02 7.900000000000000000e+01
3.300000000000000000e+02 7.900000000000000000e+01
3.360000000000000000e+02 7.900000000000000000e+01
3.370000000000000000e+02 7.900000000000000000e+01
3.380000000000000000e+02 7.900000000000000000e+01
3.430000000000000000e+02 7.900000000000000000e+01
3.440000000000000000e+02 7.900000000000000000e+01
6.400000000000000000e+02 7.900000000000000000e+01
6.410000000000000000e+02 7.900000000000000000e+01
6.420000000000000000e+02 7.900000000000000000e+01
6.480000000000000000e+02 7.900000000000000000e+01
6.490000000000000000e+02 7.900000000000000000e+01
6.500000000000000000e+02 7.900000000000000000e+01
6.620000000000000000e+02 7.900000000000000000e+01
6.630000000000000000e+02 7.900000000000000000e+01
7.000000000000000000e+00 8.000000000000000000e+01
1.100000000000000000e+01 8.000000000000000000e+01
4.100000000000000000e+01 8.000000000000000000e+01
4.200000000000000000e+01 8.000000000000000000e+01
4.300000000000000000e+01 8.000000000000000000e+01
1.130000000000000000e+02 8.000000000000000000e+01
1.160000000000000000e+02 8.000000000000000000e+01
1.470000000000000000e+02 8.000000000000000000e+01
1.480000000000000000e+02 8.000000000000000000e+01
2.170000000000000000e+02 8.000000000000000000e+01
2.200000000000000000e+02 8.000000000000000000e+01
3.150000000000000000e+02 8.000000000000000000e+01
3.160000000000000000e+02 8.000000000000000000e+01
3.220000000000000000e+02 8.000000000000000000e+01
3.230000000000000000e+02 8.000000000000000000e+01
3.290000000000000000e+02 8.000000000000000000e+01
3.300000000000000000e+02 8.000000000000000000e+01
3.360000000000000000e+02 8.000000000000000000e+01
3.370000000000000000e+02 8.000000000000000000e+01
3.430000000000000000e+02 8.000000000000000000e+01
3.440000000000000000e+02 8.000000000000000000e+01
6.410000000000000000e+02 8.000000000000000000e+01
6.420000000000000000e+02 8.000000000000000000e+01
6.480000000000000000e+02 8.000000000000000000e+01
6.490000000000000000e+02 8.000000000000000000e+01
6.610000000000000000e+02 8.000000000000000000e+01
6.620000000000000000e+02 8.000000000000000000e+01
7.000000000000000000e+00 8.100000000000000000e+01
1.100000000000000000e+01 8.100000000000000000e+01
4.000000000000000000e+01 8.100000000000000000e+01
4.100000000000000000e+01 8.100000000000000000e+01
4.300000000000000000e+01 8.100000000000000000e+01
4.400000000000000000e+01 8.100000000000000000e+01
1.130000000000000000e+02 8.100000000000000000e+01
1.160000000000000000e+02 8.100000000000000000e+01
1.460000000000000000e+02 8.100000000000000000e+01
1.470000000000000000e+02 8.100000000000000000e+01
1.480000000000000000e+02 8.100000000000000000e+01
1.490000000000000000e+02 8.100000000000000000e+01
2.170000000000000000e+02 8.100000000000000000e+01
2.200000000000000000e+02 8.100000000000000000e+01
3.200000000000000000e+02 8.100000000000000000e+01
3.210000000000000000e+02 8.100000000000000000e+01
3.220000000000000000e+02 8.100000000000000000e+01
3.230000000000000000e+02 8.100000000000000000e+01
3.290000000000000000e+02 8.100000000000000000e+01
3.300000000000000000e+02 8.100000000000000000e+01
3.360000000000000000e+02 8.100000000000000000e+01
3.370000000000000000e+02 8.100000000000000000e+01
3.430000000000000000e+02 8.100000000000000000e+01
3.440000000000000000e+02 8.100000000000000000e+01
6.410000000000000000e+02 8.100000000000000000e+01
6.420000000000000000e+02 8.100000000000000000e+01
6.480000000000000000e+02 8.100000000000000000e+01
6.490000000000000000e+02 8.100000000000000000e+01
6.600000000000000000e+02 8.100000000000000000e+01
6.610000000000000000e+02 8.100000000000000000e+01
7.000000000000000000e+00 8.200000000000000000e+01
1.100000000000000000e+01 8.200000000000000000e+01
4.000000000000000000e+01 8.200000000000000000e+01
4.400000000000000000e+01 8.200000000000000000e+01
1.130000000000000000e+02 8.200000000000000000e+01
1.160000000000000000e+02 8.200000000000000000e+01
1.460000000000000000e+02 8.200000000000000000e+01
1.470000000000000000e+02 8.200000000000000000e+01
1.490000000000000000e+02 8.200000000000000000e+01
1.500000000000000000e+02 8.200000000000000000e+01
2.170000000000000000e+02 8.200000000000000000e+01
2.200000000000000000e+02 8.200000000000000000e+01
2.510000000000000000e+02 8.200000000000000000e+01
2.520000000000000000e+02 8.200000000000000000e+01
2.530000000000000000e+02 8.200000000000000000e+01
3.160000000000000000e+02 8.200000000000000000e+01
3.170000000000000000e+02 8.200000000000000000e+01
3.180000000000000000e+02 8.200000000000000000e+01
3.190000000000000000e+02 8.200000000000000000e+01
3.200000000000000000e+02 8.200000000000000000e+01
3.210000000000000000e+02 8.200000000000000000e+01
3.220000000000000000e+02 8.200000000000000000e+01
3.230000000000000000e+02 8.200000000000000000e+01
3.300000000000000000e+02 8.200000000000000000e+01
3.310000000000000000e+02 8.200000000000000000e+01
3.350000000000000000e+02 8.200000000000000000e+01
3.360000000000000000e+02 8.200000000000000000e+01
3.430000000000000000e+02 8.200000000000000000e+01
3.440000000000000000e+02 8.200000000000000000e+01
6.420000000000000000e+02 8.200000000000000000e+01
6.430000000000000000e+02 8.200000000000000000e+01
6.470000000000000000e+02 8.200000000000000000e+01
6.480000000000000000e+02 8.200000000000000000e+01
6.590000000000000000e+02 8.200000000000000000e+01
6.600000000000000000e+02 8.200000000000000000e+01
7.000000000000000000e+00 8.300000000000000000e+01
1.100000000000000000e+01 8.300000000000000000e+01
3.900000000000000000e+01 8.300000000000000000e+01
4.000000000000000000e+01 8.300000000000000000e+01
4.400000000000000000e+01 8.300000000000000000e+01
1.130000000000000000e+02 8.300000000000000000e+01
1.160000000000000000e+02 8.300000000000000000e+01
1.450000000000000000e+02 8.300000000000000000e+01
1.460000000000000000e+02 8.300000000000000000e+01
1.500000000000000000e+02 8.300000000000000000e+01
2.170000000000000000e+02 8.300000000000000000e+01
2.200000000000000000e+02 8.300000000000000000e+01
2.500000000000000000e+02 8.300000000000000000e+01
2.510000000000000000e+02 8.300000000000000000e+01
2.520000000000000000e+02 8.300000000000000000e+01
2.530000000000000000e+02 8.300000000000000000e+01
3.160000000000000000e+02 8.300000000000000000e+01
3.170000000000000000e+02 8.300000000000000000e+01
3.180000000000000000e+02 8.300000000000000000e+01
3.190000000000000000e+02 8.300000000000000000e+01
3.220000000000000000e+02 8.300000000000000000e+01
3.230000000000000000e+02 8.300000000000000000e+01
3.300000000000000000e+02 8.300000000000000000e+01
3.310000000000000000e+02 8.300000000000000000e+01
3.350000000000000000e+02 8.300000000000000000e+01
3.360000000000000000e+02 8.300000000000000000e+01
3.430000000000000000e+02 8.300000000000000000e+01
3.440000000000000000e+02 8.300000000000000000e+01
6.420000000000000000e+02 8.300000000000000000e+01
6.430000000000000000e+02 8.300000000000000000e+01
6.470000000000000000e+02 8.300000000000000000e+01
6.480000000000000000e+02 8.300000000000000000e+01
6.580000000000000000e+02 8.300000000000000000e+01
6.590000000000000000e+02 8.300000000000000000e+01
7.000000000000000000e+00 8.400000000000000000e+01
1.100000000000000000e+01 8.400000000000000000e+01
3.900000000000000000e+01 8.400000000000000000e+01
4.400000000000000000e+01 8.400000000000000000e+01
4.500000000000000000e+01 8.400000000000000000e+01
1.130000000000000000e+02 8.400000000000000000e+01
1.160000000000000000e+02 8.400000000000000000e+01
1.450000000000000000e+02 8.400000000000000000e+01
1.500000000000000000e+02 8.400000000000000000e+01
2.170000000000000000e+02 8.400000000000000000e+01
2.200000000000000000e+02 8.400000000000000000e+01
2.500000000000000000e+02 8.400000000000000000e+01
2.530000000000000000e+02 8.400000000000000000e+01
3.150000000000000000e+02 8.400000000000000000e+01
3.160000000000000000e+02 8.400000000000000000e+01
3.220000000000000000e+02 8.400000000000000000e+01
3.230000000000000000e+02 8.400000000000000000e+01
3.300000000000000000e+02 8.400000000000000000e+01
3.310000000000000000e+02 8.400000000000000000e+01
3.350000000000000000e+02 8.400000000000000000e+01
3.360000000000000000e+02 8.400000000000000000e+01
3.430000000000000000e+02 8.400000000000000000e+01
3.440000000000000000e+02 8.400000000000000000e+01
6.420000000000000000e+02 8.400000000000000000e+01
6.430000000000000000e+02 8.400000000000000000e+01
6.470000000000000000e+02 8.400000000000000000e+01
6.480000000000000000e+02 8.400000000000000000e+01
6.570000000000000000e+02 8.400000000000000000e+01
6.580000000000000000e+02 8.400000000000000000e+01
7.570000000000000000e+02 8.400000000000000000e+01
7.580000000000000000e+02 8.400000000000000000e+01
7.000000000000000000e+00 8.500000000000000000e+01
1.100000000000000000e+01 8.500000000000000000e+01
3.800000000000000000e+01 8.500000000000000000e+01
3.900000000000000000e+01 8.500000000000000000e+01
4.500000000000000000e+01 8.500000000000000000e+01
1.130000000000000000e+02 8.500000000000000000e+01
1.160000000000000000e+02 8.500000000000000000e+01
1.440000000000000000e+02 8.500000000000000000e+01
1.450000000000000000e+02 8.500000000000000000e+01
1.500000000000000000e+02 8.500000000000000000e+01
1.510000000000000000e+02 8.500000000000000000e+01
2.170000000000000000e+02 8.500000000000000000e+01
2.200000000000000000e+02 8.500000000000000000e+01
2.490000000000000000e+02 8.500000000000000000e+01
2.500000000000000000e+02 8.500000000000000000e+01
2.530000000000000000e+02 8.500000000000000000e+01
3.150000000000000000e+02 8.500000000000000000e+01
3.160000000000000000e+02 8.500000000000000000e+01
3.220000000000000000e+02 8.500000000000000000e+01
3.230000000000000000e+02 8.500000000000000000e+01
3.310000000000000000e+02 8.500000000000000000e+01
3.320000000000000000e+02 8.500000000000000000e+01
3.340000000000000000e+02 8.500000000000000000e+01
3.350000000000000000e+02 8.500000000000000000e+01
3.430000000000000000e+02 8.500000000000000000e+01
3.440000000000000000e+02 8.500000000000000000e+01
6.430000000000000000e+02 8.500000000000000000e+01
6.440000000000000000e+02 8.500000000000000000e+01
6.460000000000000000e+02 8.500000000000000000e+01
6.470000000000000000e+02 8.500000000000000000e+01
6.560000000000000000e+02 8.500000000000000000e+01
6.570000000000000000e+02 8.500000000000000000e+01
7.230000000000000000e+02 8.500000000000000000e+01
7.560000000000000000e+02 8.500000000000000000e+01
7.570000000000000000e+02 8.500000000000000000e+01
7.580000000000000000e+02 8.500000000000000000e+01
7.590000000000000000e+02 8.500000000000000000e+01
7.000000000000000000e+00 8.600000000000000000e+01
1.100000000000000000e+01 8.600000000000000000e+01
3.800000000000000000e+01 8.600000000000000000e+01
4.500000000000000000e+01 8.600000000000000000e+01
1.130000000000000000e+02 8.600000000000000000e+01
1.160000000000000000e+02 8.600000000000000000e+01
1.440000000000000000e+02 8.600000000000000000e+01
1.510000000000000000e+02 8.600000000000000000e+01
2.170000000000000000e+02 8.600000000000000000e+01
2.200000000000000000e+02 8.600000000000000000e+01
2.490000000000000000e+02 8.600000000000000000e+01
2.530000000000000000e+02 8.600000000000000000e+01
2.540000000000000000e+02 8.600000000000000000e+01
3.150000000000000000e+02 8.600000000000000000e+01
3.160000000000000000e+02 8.600000000000000000e+01
3.210000000000000000e+02 8.600000000000000000e+01
3.220000000000000000e+02 8.600000000000000000e+01
3.230000000000000000e+02 8.600000000000000000e+01
3.310000000000000000e+02 8.600000000000000000e+01
3.320000000000000000e+02 8.600000000000000000e+01
3.340000000000000000e+02 8.600000000000000000e+01
3.350000000000000000e+02 8.600000000000000000e+01
3.430000000000000000e+02 8.600000000000000000e+01
3.440000000000000000e+02 8.600000000000000000e+01
6.430000000000000000e+02 8.600000000000000000e+01
6.440000000000000000e+02 8.600000000000000000e+01
6.460000000000000000e+02 8.600000000000000000e+01
6.470000000000000000e+02 8.600000000000000000e+01
6.550000000000000000e+02 8.600000000000000000e+01
6.560000000000000000e+02 8.600000000000000000e+01
7.230000000000000000e+02 8.600000000000000000e+01
7.550000000000000000e+02 8.600000000000000000e+01
7.560000000000000000e+02 8.600000000000000000e+01
7.590000000000000000e+02 8.600000000000000000e+01
7.000000000000000000e+00 8.700000000000000000e+01
1.100000000000000000e+01 8.700000000000000000e+01
3.800000000000000000e+01 8.700000000000000000e+01
4.500000000000000000e+01 8.700000000000000000e+01
4.600000000000000000e+01 8.700000000000000000e+01
1.130000000000000000e+02 8.700000000000000000e+01
1.160000000000000000e+02 8.700000000000000000e+01
1.430000000000000000e+02 8.700000000000000000e+01
1.440000000000000000e+02 8.700000000000000000e+01
1.510000000000000000e+02 8.700000000000000000e+01
2.160000000000000000e+02 8.700000000000000000e+01
2.200000000000000000e+02 8.700000000000000000e+01
2.480000000000000000e+02 8.700000000000000000e+01
2.490000000000000000e+02 8.700000000000000000e+01
2.540000000000000000e+02 8.700000000000000000e+01
3.160000000000000000e+02 8.700000000000000000e+01
3.170000000000000000e+02 8.700000000000000000e+01
3.180000000000000000e+02 8.700000000000000000e+01
3.190000000000000000e+02 8.700000000000000000e+01
3.200000000000000000e+02 8.700000000000000000e+01
3.210000000000000000e+02 8.700000000000000000e+01
3.220000000000000000e+02 8.700000000000000000e+01
3.230000000000000000e+02 8.700000000000000000e+01
3.310000000000000000e+02 8.700000000000000000e+01
3.320000000000000000e+02 8.700000000000000000e+01
3.330000000000000000e+02 8.700000000000000000e+01
3.340000000000000000e+02 8.700000000000000000e+01
3.350000000000000000e+02 8.700000000000000000e+01
3.430000000000000000e+02 8.700000000000000000e+01
3.440000000000000000e+02 8.700000000000000000e+01
3.450000000000000000e+02 8.700000000000000000e+01
3.460000000000000000e+02 8.700000000000000000e+01
3.470000000000000000e+02 8.700000000000000000e+01
3.480000000000000000e+02 8.700000000000000000e+01
3.490000000000000000e+02 8.700000000000000000e+01
3.500000000000000000e+02 8.700000000000000000e+01
3.510000000000000000e+02 8.700000000000000000e+01
6.430000000000000000e+02 8.700000000000000000e+01
6.440000000000000000e+02 8.700000000000000000e+01
6.450000000000000000e+02 8.700000000000000000e+01
6.460000000000000000e+02 8.700000000000000000e+01
6.470000000000000000e+02 8.700000000000000000e+01
6.540000000000000000e+02 8.700000000000000000e+01
6.550000000000000000e+02 8.700000000000000000e+01
6.560000000000000000e+02 8.700000000000000000e+01
6.570000000000000000e+02 8.700000000000000000e+01
6.580000000000000000e+02 8.700000000000000000e+01
6.590000000000000000e+02 8.700000000000000000e+01
6.600000000000000000e+02 8.700000000000000000e+01
6.610000000000000000e+02 8.700000000000000000e+01
6.620000000000000000e+02 8.700000000000000000e+01
6.630000000000000000e+02 8.700000000000000000e+01
7.230000000000000000e+02 8.700000000000000000e+01
7.550000000000000000e+02 8.700000000000000000e+01
7.590000000000000000e+02 8.700000000000000000e+01
7.600000000000000000e+02 8.700000000000000000e+01
7.000000000000000000e+00 8.800000000000000000e+01
1.100000000000000000e+01 8.800000000000000000e+01
3.700000000000000000e+01 8.800000000000000000e+01
3.800000000000000000e+01 8.800000000000000000e+01
4.500000000000000000e+01 8.800000000000000000e+01
4.600000000000000000e+01 8.800000000000000000e+01
1.130000000000000000e+02 8.800000000000000000e+01
1.160000000000000000e+02 8.800000000000000000e+01
1.420000000000000000e+02 8.800000000000000000e+01
1.430000000000000000e+02 8.800000000000000000e+01
1.510000000000000000e+02 8.800000000000000000e+01
2.160000000000000000e+02 8.800000000000000000e+01
2.200000000000000000e+02 8.800000000000000000e+01
2.480000000000000000e+02 8.800000000000000000e+01
2.540000000000000000e+02 8.800000000000000000e+01
3.160000000000000000e+02 8.800000000000000000e+01
3.170000000000000000e+02 8.800000000000000000e+01
3.180000000000000000e+02 8.800000000000000000e+01
3.190000000000000000e+02 8.800000000000000000e+01
3.200000000000000000e+02 8.800000000000000000e+01
3.230000000000000000e+02 8.800000000000000000e+01
3.240000000000000000e+02 8.800000000000000000e+01
3.320000000000000000e+02 8.800000000000000000e+01
3.330000000000000000e+02 8.800000000000000000e+01
3.340000000000000000e+02 8.800000000000000000e+01
3.430000000000000000e+02 8.800000000000000000e+01
3.440000000000000000e+02 8.800000000000000000e+01
3.450000000000000000e+02 8.800000000000000000e+01
3.460000000000000000e+02 8.800000000000000000e+01
3.470000000000000000e+02 8.800000000000000000e+01
3.480000000000000000e+02 8.800000000000000000e+01
3.490000000000000000e+02 8.800000000000000000e+01
3.500000000000000000e+02 8.800000000000000000e+01
3.510000000000000000e+02 8.800000000000000000e+01
6.440000000000000000e+02 8.800000000000000000e+01
6.450000000000000000e+02 8.800000000000000000e+01
6.460000000000000000e+02 8.800000000000000000e+01
6.540000000000000000e+02 8.800000000000000000e+01
6.550000000000000000e+02 8.800000000000000000e+01
6.560000000000000000e+02 8.800000000000000000e+01
6.570000000000000000e+02 8.800000000000000000e+01
6.580000000000000000e+02 8.800000000000000000e+01
6.590000000000000000e+02 8.800000000000000000e+01
6.600000000000000000e+02 8.800000000000000000e+01
6.610000000000000000e+02 8.800000000000000000e+01
6.620000000000000000e+02 8.800000000000000000e+01
6.630000000000000000e+02 8.800000000000000000e+01
7.220000000000000000e+02 8.800000000000000000e+01
7.230000000000000000e+02 8.800000000000000000e+01
7.540000000000000000e+02 8.800000000000000000e+01
7.550000000000000000e+02 8.800000000000000000e+01
7.600000000000000000e+02 8.800000000000000000e+01
7.000000000000000000e+00 8.900000000000000000e+01
1.100000000000000000e+01 8.900000000000000000e+01
3.700000000000000000e+01 8.900000000000000000e+01
4.600000000000000000e+01 8.900000000000000000e+01
1.130000000000000000e+02 8.900000000000000000e+01
1.160000000000000000e+02 8.900000000000000000e+01
1.420000000000000000e+02 8.900000000000000000e+01
1.510000000000000000e+02 8.900000000000000000e+01
2.160000000000000000e+02 8.900000000000000000e+01
2.200000000000000000e+02 8.900000000000000000e+01
2.480000000000000000e+02 8.900000000000000000e+01
2.540000000000000000e+02 8.900000000000000000e+01
2.550000000000000000e+02 8.900000000000000000e+01
6.580000000000000000e+02 8.900000000000000000e+01
6.590000000000000000e+02 8.900000000000000000e+01
7.220000000000000000e+02 8.900000000000000000e+01
7.230000000000000000e+02 8.900000000000000000e+01
7.530000000000000000e+02 8.900000000000000000e+01
7.540000000000000000e+02 8.900000000000000000e+01
7.600000000000000000e+02 8.900000000000000000e+01
7.000000000000000000e+00 9.000000000000000000e+01
1.100000000000000000e+01 9.000000000000000000e+01
3.600000000000000000e+01 9.000000000000000000e+01
3.700000000000000000e+01 9.000000000000000000e+01
4.600000000000000000e+01 9.000000000000000000e+01
1.120000000000000000e+02 9.000000000000000000e+01
1.160000000000000000e+02 9.000000000000000000e+01
1.420000000000000000e+02 9.000000000000000000e+01
1.510000000000000000e+02 9.000000000000000000e+01
1.520000000000000000e+02 9.000000000000000000e+01
2.160000000000000000e+02 9.000000000000000000e+01
2.200000000000000000e+02 9.000000000000000000e+01
2.470000000000000000e+02 9.000000000000000000e+01
2.480000000000000000e+02 9.000000000000000000e+01
2.550000000000000000e+02 9.000000000000000000e+01
3.880000000000000000e+02 9.000000000000000000e+01
4.160000000000000000e+02 9.000000000000000000e+01
6.570000000000000000e+02 9.000000000000000000e+01
6.580000000000000000e+02 9.000000000000000000e+01
6.590000000000000000e+02 9.000000000000000000e+01
6.600000000000000000e+02 9.000000000000000000e+01
7.220000000000000000e+02 9.000000000000000000e+01
7.230000000000000000e+02 9.000000000000000000e+01
7.530000000000000000e+02 9.000000000000000000e+01
7.600000000000000000e+02 9.000000000000000000e+01
7.610000000000000000e+02 9.000000000000000000e+01
7.000000000000000000e+00 9.100000000000000000e+01
1.100000000000000000e+01 9.100000000000000000e+01
3.500000000000000000e+01 9.100000000000000000e+01
3.600000000000000000e+01 9.100000000000000000e+01
4.600000000000000000e+01 9.100000000000000000e+01
1.120000000000000000e+02 9.100000000000000000e+01
1.160000000000000000e+02 9.100000000000000000e+01
1.420000000000000000e+02 9.100000000000000000e+01
1.520000000000000000e+02 9.100000000000000000e+01
2.160000000000000000e+02 9.100000000000000000e+01
2.200000000000000000e+02 9.100000000000000000e+01
2.470000000000000000e+02 9.100000000000000000e+01
2.550000000000000000e+02 9.100000000000000000e+01
3.830000000000000000e+02 9.100000000000000000e+01
3.840000000000000000e+02 9.100000000000000000e+01
3.880000000000000000e+02 9.100000000000000000e+01
3.900000000000000000e+02 9.100000000000000000e+01
4.150000000000000000e+02 9.100000000000000000e+01
4.160000000000000000e+02 9.100000000000000000e+01
6.560000000000000000e+02 9.100000000000000000e+01
6.570000000000000000e+02 9.100000000000000000e+01
6.600000000000000000e+02 9.100000000000000000e+01
6.610000000000000000e+02 9.100000000000000000e+01
7.220000000000000000e+02 9.100000000000000000e+01
7.230000000000000000e+02 9.100000000000000000e+01
7.530000000000000000e+02 9.100000000000000000e+01
7.610000000000000000e+02 9.100000000000000000e+01
7.000000000000000000e+00 9.200000000000000000e+01
1.100000000000000000e+01 9.200000000000000000e+01
3.500000000000000000e+01 9.200000000000000000e+01
4.600000000000000000e+01 9.200000000000000000e+01
4.700000000000000000e+01 9.200000000000000000e+01
1.120000000000000000e+02 9.200000000000000000e+01
1.160000000000000000e+02 9.200000000000000000e+01
1.410000000000000000e+02 9.200000000000000000e+01
1.420000000000000000e+02 9.200000000000000000e+01
1.520000000000000000e+02 9.200000000000000000e+01
2.160000000000000000e+02 9.200000000000000000e+01
2.200000000000000000e+02 9.200000000000000000e+01
2.460000000000000000e+02 9.200000000000000000e+01
2.470000000000000000e+02 9.200000000000000000e+01
2.550000000000000000e+02 9.200000000000000000e+01
2.560000000000000000e+02 9.200000000000000000e+01
3.830000000000000000e+02 9.200000000000000000e+01
3.840000000000000000e+02 9.200000000000000000e+01
3.860000000000000000e+02 9.200000000000000000e+01
3.870000000000000000e+02 9.200000000000000000e+01
3.880000000000000000e+02 9.200000000000000000e+01
3.900000000000000000e+02 9.200000000000000000e+01
3.910000000000000000e+02 9.200000000000000000e+01
3.920000000000000000e+02 9.200000000000000000e+01
3.930000000000000000e+02 9.200000000000000000e+01
3.970000000000000000e+02 9.200000000000000000e+01
4.040000000000000000e+02 9.200000000000000000e+01
4.080000000000000000e+02 9.200000000000000000e+01
4.150000000000000000e+02 9.200000000000000000e+01
4.160000000000000000e+02 9.200000000000000000e+01
4.170000000000000000e+02 9.200000000000000000e+01
6.550000000000000000e+02 9.200000000000000000e+01
6.560000000000000000e+02 9.200000000000000000e+01
6.610000000000000000e+02 9.200000000000000000e+01
7.220000000000000000e+02 9.200000000000000000e+01
7.230000000000000000e+02 9.200000000000000000e+01
7.520000000000000000e+02 9.200000000000000000e+01
7.530000000000000000e+02 9.200000000000000000e+01
7.610000000000000000e+02 9.200000000000000000e+01
7.000000000000000000e+00 9.300000000000000000e+01
1.100000000000000000e+01 9.300000000000000000e+01
3.400000000000000000e+01 9.300000000000000000e+01
3.500000000000000000e+01 9.300000000000000000e+01
4.700000000000000000e+01 9.300000000000000000e+01
1.120000000000000000e+02 9.300000000000000000e+01
1.160000000000000000e+02 9.300000000000000000e+01
1.400000000000000000e+02 9.300000000000000000e+01
1.410000000000000000e+02 9.300000000000000000e+01
1.420000000000000000e+02 9.300000000000000000e+01
1.520000000000000000e+02 9.300000000000000000e+01
2.160000000000000000e+02 9.300000000000000000e+01
2.200000000000000000e+02 9.300000000000000000e+01
2.460000000000000000e+02 9.300000000000000000e+01
2.560000000000000000e+02 9.300000000000000000e+01
3.810000000000000000e+02 9.300000000000000000e+01
3.820000000000000000e+02 9.300000000000000000e+01
3.830000000000000000e+02 9.300000000000000000e+01
3.840000000000000000e+02 9.300000000000000000e+01
3.850000000000000000e+02 9.300000000000000000e+01
3.860000000000000000e+02 9.300000000000000000e+01
3.870000000000000000e+02 9.300000000000000000e+01
3.880000000000000000e+02 9.300000000000000000e+01
3.890000000000000000e+02 9.300000000000000000e+01
3.900000000000000000e+02 9.300000000000000000e+01
3.910000000000000000e+02 9.300000000000000000e+01
3.920000000000000000e+02 9.300000000000000000e+01
3.930000000000000000e+02 9.300000000000000000e+01
3.940000000000000000e+02 9.300000000000000000e+01
3.950000000000000000e+02 9.300000000000000000e+01
3.960000000000000000e+02 9.300000000000000000e+01
3.970000000000000000e+02 9.300000000000000000e+01
3.980000000000000000e+02 9.300000000000000000e+01
4.020000000000000000e+02 9.300000000000000000e+01
4.030000000000000000e+02 9.300000000000000000e+01
4.040000000000000000e+02 9.300000000000000000e+01
4.050000000000000000e+02 9.300000000000000000e+01
4.080000000000000000e+02 9.300000000000000000e+01
4.140000000000000000e+02 9.300000000000000000e+01
4.150000000000000000e+02 9.300000000000000000e+01
4.170000000000000000e+02 9.300000000000000000e+01
5.200000000000000000e+02 9.300000000000000000e+01
6.550000000000000000e+02 9.300000000000000000e+01
6.610000000000000000e+02 9.300000000000000000e+01
7.220000000000000000e+02 9.300000000000000000e+01
7.230000000000000000e+02 9.300000000000000000e+01
7.520000000000000000e+02 9.300000000000000000e+01
7.610000000000000000e+02 9.300000000000000000e+01
