6.810000000000000000e+02 7.900000000000000000e+01
4.800000000000000000e+01 8.000000000000000000e+01
1.660000000000000000e+02 8.000000000000000000e+01
2.870000000000000000e+02 8.000000000000000000e+01
6.790000000000000000e+02 8.000000000000000000e+01
6.800000000000000000e+02 8.000000000000000000e+01
6.810000000000000000e+02 8.000000000000000000e+01
6.820000000000000000e+02 8.000000000000000000e+01
4.700000000000000000e+01 8.100000000000000000e+01
4.800000000000000000e+01 8.100000000000000000e+01
1.660000000000000000e+02 8.100000000000000000e+01
2.870000000000000000e+02 8.100000000000000000e+01
6.790000000000000000e+02 8.100000000000000000e+01
6.800000000000000000e+02 8.100000000000000000e+01
6.810000000000000000e+02 8.100000000000000000e+01
6.820000000000000000e+02 8.100000000000000000e+01
4.700000000000000000e+01 8.200000000000000000e+01
4.800000000000000000e+01 8.200000000000000000e+01
1.660000000000000000e+02 8.200000000000000000e+01
1.670000000000000000e+02 8.200000000000000000e+01
2.860000000000000000e+02 8.200000000000000000e+01
2.870000000000000000e+02 8.200000000000000000e+01
6.790000000000000000e+02 8.200000000000000000e+01
6.800000000000000000e+02 8.200000000000000000e+01
6.820000000000000000e+02 8.200000000000000000e+01
6.830000000000000000e+02 8.200000000000000000e+01
4.700000000000000000e+01 8.300000000000000000e+01
4.800000000000000000e+01 8.300000000000000000e+01
1.660000000000000000e+02 8.300000000000000000e+01
1.670000000000000000e+02 8.300000000000000000e+01
2.860000000000000000e+02 8.300000000000000000e+01
2.870000000000000000e+02 8.300000000000000000e+01
6.780000000000000000e+02 8.300000000000000000e+01
6.790000000000000000e+02 8.300000000000000000e+01
6.830000000000000000e+02 8.300000000000000000e+01
4.700000000000000000e+01 8.400000000000000000e+01
4.800000000000000000e+01 8.400000000000000000e+01
1.660000000000000000e+02 8.400000000000000000e+01
1.670000000000000000e+02 8.400000000000000000e+01
2.860000000000000000e+02 8.400000000000000000e+01
2.870000000000000000e+02 8.400000000000000000e+01
6.780000000000000000e+02 8.400000000000000000e+01
6.830000000000000000e+02 8.400000000000000000e+01
0.000000000000000000e+00 8.500000000000000000e+01
4.700000000000000000e+01 8.500000000000000000e+01
4.800000000000000000e+01 8.500000000000000000e+01
1.660000000000000000e+02 8.500000000000000000e+01
1.670000000000000000e+02 8.500000000000000000e+01
2.860000000000000000e+02 8.500000000000000000e+01
2.870000000000000000e+02 8.500000000000000000e+01
3.360000000000000000e+02 8.500000000000000000e+01
3.370000000000000000e+02 8.500000000000000000e+01
3.490000000000000000e+02 8.500000000000000000e+01
3.500000000000000000e+02 8.500000000000000000e+01
3.530000000000000000e+02 8.500000000000000000e+01
3.540000000000000000e+02 8.500000000000000000e+01
6.550000000000000000e+02 8.500000000000000000e+01
6.560000000000000000e+02 8.500000000000000000e+01
6.680000000000000000e+02 8.500000000000000000e+01
6.690000000000000000e+02 8.500000000000000000e+01
6.740000000000000000e+02 8.500000000000000000e+01
6.750000000000000000e+02 8.500000000000000000e+01
6.760000000000000000e+02 8.500000000000000000e+01
6.770000000000000000e+02 8.500000000000000000e+01
6.780000000000000000e+02 8.500000000000000000e+01
6.830000000000000000e+02 8.500000000000000000e+01
6.840000000000000000e+02 8.500000000000000000e+01
0.000000000000000000e+00 8.600000000000000000e+01
4.700000000000000000e+01 8.600000000000000000e+01
4.800000000000000000e+01 8.600000000000000000e+01
1.660000000000000000e+02 8.600000000000000000e+01
1.670000000000000000e+02 8.600000000000000000e+01
2.860000000000000000e+02 8.600000000000000000e+01
2.870000000000000000e+02 8.600000000000000000e+01
3.360000000000000000e+02 8.600000000000000000e+01
3.370000000000000000e+02 8.600000000000000000e+01
3.380000000000000000e+02 8.600000000000000000e+01
3.480000000000000000e+02 8.600000000000000000e+01
3.490000000000000000e+02 8.600000000000000000e+01
3.500000000000000000e+02 8.600000000000000000e+01
3.530000000000000000e+02 8.600000000000000000e+01
3.540000000000000000e+02 8.600000000000000000e+01
6.550000000000000000e+02 8.600000000000000000e+01
6.560000000000000000e+02 8.600000000000000000e+01
6.570000000000000000e+02 8.600000000000000000e+01
6.670000000000000000e+02 8.600000000000000000e+01
6.680000000000000000e+02 8.600000000000000000e+01
6.690000000000000000e+02 8.600000000000000000e+01
6.720000000000000000e+02 8.600000000000000000e+01
6.730000000000000000e+02 8.600000000000000000e+01
6.740000000000000000e+02 8.600000000000000000e+01
6.750000000000000000e+02 8.600000000000000000e+01
6.760000000000000000e+02 8.600000000000000000e+01
6.770000000000000000e+02 8.600000000000000000e+01
6.780000000000000000e+02 8.600000000000000000e+01
6.790000000000000000e+02 8.600000000000000000e+01
6.800000000000000000e+02 8.600000000000000000e+01
6.840000000000000000e+02 8.600000000000000000e+01
0.000000000000000000e+00 8.700000000000000000e+01
4.700000000000000000e+01 8.700000000000000000e+01
4.800000000000000000e+01 8.700000000000000000e+01
1.660000000000000000e+02 8.700000000000000000e+01
1.670000000000000000e+02 8.700000000000000000e+01
2.860000000000000000e+02 8.700000000000000000e+01
2.870000000000000000e+02 8.700000000000000000e+01
3.370000000000000000e+02 8.700000000000000000e+01
3.380000000000000000e+02 8.700000000000000000e+01
3.480000000000000000e+02 8.700000000000000000e+01
3.490000000000000000e+02 8.700000000000000000e+01
3.530000000000000000e+02 8.700000000000000000e+01
3.540000000000000000e+02 8.700000000000000000e+01
6.560000000000000000e+02 8.700000000000000000e+01
6.570000000000000000e+02 8.700000000000000000e+01
6.670000000000000000e+02 8.700000000000000000e+01
6.680000000000000000e+02 8.700000000000000000e+01
6.720000000000000000e+02 8.700000000000000000e+01
6.730000000000000000e+02 8.700000000000000000e+01
6.770000000000000000e+02 8.700000000000000000e+01
6.790000000000000000e+02 8.700000000000000000e+01
6.800000000000000000e+02 8.700000000000000000e+01
6.840000000000000000e+02 8.700000000000000000e+01
0.000000000000000000e+00 8.800000000000000000e+01
4.700000000000000000e+01 8.800000000000000000e+01
4.800000000000000000e+01 8.800000000000000000e+01
1.660000000000000000e+02 8.800000000000000000e+01
1.670000000000000000e+02 8.800000000000000000e+01
2.860000000000000000e+02 8.800000000000000000e+01
2.870000000000000000e+02 8.800000000000000000e+01
3.370000000000000000e+02 8.800000000000000000e+01
3.380000000000000000e+02 8.800000000000000000e+01
3.480000000000000000e+02 8.800000000000000000e+01
3.490000000000000000e+02 8.800000000000000000e+01
3.530000000000000000e+02 8.800000000000000000e+01
3.540000000000000000e+02 8.800000000000000000e+01
6.560000000000000000e+02 8.800000000000000000e+01
6.570000000000000000e+02 8.800000000000000000e+01
6.670000000000000000e+02 8.800000000000000000e+01
6.680000000000000000e+02 8.800000000000000000e+01
6.710000000000000000e+02 8.800000000000000000e+01
6.720000000000000000e+02 8.800000000000000000e+01
6.770000000000000000e+02 8.800000000000000000e+01
6.800000000000000000e+02 8.800000000000000000e+01
6.810000000000000000e+02 8.800000000000000000e+01
6.840000000000000000e+02 8.800000000000000000e+01
0.000000000000000000e+00 8.900000000000000000e+01
4.700000000000000000e+01 8.900000000000000000e+01
4.800000000000000000e+01 8.900000000000000000e+01
1.660000000000000000e+02 8.900000000000000000e+01
1.670000000000000000e+02 8.900000000000000000e+01
2.860000000000000000e+02 8.900000000000000000e+01
2.870000000000000000e+02 8.900000000000000000e+01
3.270000000000000000e+02 8.900000000000000000e+01
3.280000000000000000e+02 8.900000000000000000e+01
3.290000000000000000e+02 8.900000000000000000e+01
3.300000000000000000e+02 8.900000000000000000e+01
3.310000000000000000e+02 8.900000000000000000e+01
3.370000000000000000e+02 8.900000000000000000e+01
3.380000000000000000e+02 8.900000000000000000e+01
3.390000000000000000e+02 8.900000000000000000e+01
3.470000000000000000e+02 8.900000000000000000e+01
3.480000000000000000e+02 8.900000000000000000e+01
3.490000000000000000e+02 8.900000000000000000e+01
3.530000000000000000e+02 8.900000000000000000e+01
3.540000000000000000e+02 8.900000000000000000e+01
6.560000000000000000e+02 8.900000000000000000e+01
6.570000000000000000e+02 8.900000000000000000e+01
6.580000000000000000e+02 8.900000000000000000e+01
6.660000000000000000e+02 8.900000000000000000e+01
6.670000000000000000e+02 8.900000000000000000e+01
6.680000000000000000e+02 8.900000000000000000e+01
6.710000000000000000e+02 8.900000000000000000e+01
6.720000000000000000e+02 8.900000000000000000e+01
6.760000000000000000e+02 8.900000000000000000e+01
6.770000000000000000e+02 8.900000000000000000e+01
6.800000000000000000e+02 8.900000000000000000e+01
6.810000000000000000e+02 8.900000000000000000e+01
6.840000000000000000e+02 8.900000000000000000e+01
6.850000000000000000e+02 8.900000000000000000e+01
0.000000000000000000e+00 9.000000000000000000e+01
4.700000000000000000e+01 9.000000000000000000e+01
4.800000000000000000e+01 9.000000000000000000e+01
1.660000000000000000e+02 9.000000000000000000e+01
1.670000000000000000e+02 9.000000000000000000e+01
2.860000000000000000e+02 9.000000000000000000e+01
2.870000000000000000e+02 9.000000000000000000e+01
3.250000000000000000e+02 9.000000000000000000e+01
3.260000000000000000e+02 9.000000000000000000e+01
3.270000000000000000e+02 9.000000000000000000e+01
3.280000000000000000e+02 9.000000000000000000e+01
3.290000000000000000e+02 9.000000000000000000e+01
3.300000000000000000e+02 9.000000000000000000e+01
3.310000000000000000e+02 9.000000000000000000e+01
3.320000000000000000e+02 9.000000000000000000e+01
3.380000000000000000e+02 9.000000000000000000e+01
3.390000000000000000e+02 9.000000000000000000e+01
3.470000000000000000e+02 9.000000000000000000e+01
3.480000000000000000e+02 9.000000000000000000e+01
3.530000000000000000e+02 9.000000000000000000e+01
3.540000000000000000e+02 9.000000000000000000e+01
6.570000000000000000e+02 9.000000000000000000e+01
6.580000000000000000e+02 9.000000000000000000e+01
6.660000000000000000e+02 9.000000000000000000e+01
6.670000000000000000e+02 9.000000000000000000e+01
6.760000000000000000e+02 9.000000000000000000e+01
6.800000000000000000e+02 9.000000000000000000e+01
6.810000000000000000e+02 9.000000000000000000e+01
6.850000000000000000e+02 9.000000000000000000e+01
0.000000000000000000e+00 9.100000000000000000e+01
4.700000000000000000e+01 9.100000000000000000e+01
4.800000000000000000e+01 9.100000000000000000e+01
1.650000000000000000e+02 9.100000000000000000e+01
1.660000000000000000e+02 9.100000000000000000e+01
1.670000000000000000e+02 9.100000000000000000e+01
2.860000000000000000e+02 9.100000000000000000e+01
2.880000000000000000e+02 9.100000000000000000e+01
3.240000000000000000e+02 9.100000000000000000e+01
3.250000000000000000e+02 9.100000000000000000e+01
3.260000000000000000e+02 9.100000000000000000e+01
3.310000000000000000e+02 9.100000000000000000e+01
3.320000000000000000e+02 9.100000000000000000e+01
3.330000000000000000e+02 9.100000000000000000e+01
3.380000000000000000e+02 9.100000000000000000e+01
3.390000000000000000e+02 9.100000000000000000e+01
3.470000000000000000e+02 9.100000000000000000e+01
3.480000000000000000e+02 9.100000000000000000e+01
3.530000000000000000e+02 9.100000000000000000e+01
3.540000000000000000e+02 9.100000000000000000e+01
6.570000000000000000e+02 9.100000000000000000e+01
6.580000000000000000e+02 9.100000000000000000e+01
6.660000000000000000e+02 9.100000000000000000e+01
6.670000000000000000e+02 9.100000000000000000e+01
6.760000000000000000e+02 9.100000000000000000e+01
6.800000000000000000e+02 9.100000000000000000e+01
6.810000000000000000e+02 9.100000000000000000e+01
6.850000000000000000e+02 9.100000000000000000e+01
0.000000000000000000e+00 9.200000000000000000e+01
4.700000000000000000e+01 9.200000000000000000e+01
4.800000000000000000e+01 9.200000000000000000e+01
1.650000000000000000e+02 9.200000000000000000e+01
1.670000000000000000e+02 9.200000000000000000e+01
2.860000000000000000e+02 9.200000000000000000e+01
2.880000000000000000e+02 9.200000000000000000e+01
3.240000000000000000e+02 9.200000000000000000e+01
3.250000000000000000e+02 9.200000000000000000e+01
3.320000000000000000e+02 9.200000000000000000e+01
3.330000000000000000e+02 9.200000000000000000e+01
3.380000000000000000e+02 9.200000000000000000e+01
3.390000000000000000e+02 9.200000000000000000e+01
3.400000000000000000e+02 9.200000000000000000e+01
3.460000000000000000e+02 9.200000000000000000e+01
3.470000000000000000e+02 9.200000000000000000e+01
3.480000000000000000e+02 9.200000000000000000e+01
3.530000000000000000e+02 9.200000000000000000e+01
3.540000000000000000e+02 9.200000000000000000e+01
6.570000000000000000e+02 9.200000000000000000e+01
6.580000000000000000e+02 9.200000000000000000e+01
6.590000000000000000e+02 9.200000000000000000e+01
6.650000000000000000e+02 9.200000000000000000e+01
6.660000000000000000e+02 9.200000000000000000e+01
6.670000000000000000e+02 9.200000000000000000e+01
6.750000000000000000e+02 9.200000000000000000e+01
6.760000000000000000e+02 9.200000000000000000e+01
6.790000000000000000e+02 9.200000000000000000e+01
6.800000000000000000e+02 9.200000000000000000e+01
6.850000000000000000e+02 9.200000000000000000e+01
0.000000000000000000e+00 9.300000000000000000e+01
4.700000000000000000e+01 9.300000000000000000e+01
4.800000000000000000e+01 9.300000000000000000e+01
1.650000000000000000e+02 9.300000000000000000e+01
1.670000000000000000e+02 9.300000000000000000e+01
2.860000000000000000e+02 9.300000000000000000e+01
2.880000000000000000e+02 9.300000000000000000e+01
3.300000000000000000e+02 9.300000000000000000e+01
3.310000000000000000e+02 9.300000000000000000e+01
3.320000000000000000e+02 9.300000000000000000e+01
3.330000000000000000e+02 9.300000000000000000e+01
3.390000000000000000e+02 9.300000000000000000e+01
3.400000000000000000e+02 9.300000000000000000e+01
3.460000000000000000e+02 9.300000000000000000e+01
3.470000000000000000e+02 9.300000000000000000e+01
3.530000000000000000e+02 9.300000000000000000e+01
3.540000000000000000e+02 9.300000000000000000e+01
4.060000000000000000e+02 9.300000000000000000e+01
6.580000000000000000e+02 9.300000000000000000e+01
6.590000000000000000e+02 9.300000000000000000e+01
6.650000000000000000e+02 9.300000000000000000e+01
6.660000000000000000e+02 9.300000000000000000e+01
6.750000000000000000e+02 9.300000000000000000e+01
6.780000000000000000e+02 9.300000000000000000e+01
6.790000000000000000e+02 9.300000000000000000e+01
6.850000000000000000e+02 9.300000000000000000e+01
