1.000000000000000000e+02 7.200000000000000000e+01
1.000000000000000000e+02 7.300000000000000000e+01
2.200000000000000000e+01 7.400000000000000000e+01
2.300000000000000000e+01 7.400000000000000000e+01
1.000000000000000000e+02 7.400000000000000000e+01
2.200000000000000000e+01 7.500000000000000000e+01
2.300000000000000000e+01 7.500000000000000000e+01
1.000000000000000000e+02 7.500000000000000000e+01
1.790000000000000000e+02 7.500000000000000000e+01
2.200000000000000000e+01 7.600000000000000000e+01
2.300000000000000000e+01 7.600000000000000000e+01
1.000000000000000000e+02 7.600000000000000000e+01
1.790000000000000000e+02 7.600000000000000000e+01
2.200000000000000000e+01 7.700000000000000000e+01
2.300000000000000000e+01 7.700000000000000000e+01
1.000000000000000000e+02 7.700000000000000000e+01
1.010000000000000000e+02 7.700000000000000000e+01
1.790000000000000000e+02 7.700000000000000000e+01
2.200000000000000000e+01 7.800000000000000000e+01
2.300000000000000000e+01 7.800000000000000000e+01
1.000000000000000000e+02 7.800000000000000000e+01
1.010000000000000000e+02 7.800000000000000000e+01
1.790000000000000000e+02 7.800000000000000000e+01
2.200000000000000000e+01 7.900000000000000000e+01
2.300000000000000000e+01 7.900000000000000000e+01
1.000000000000000000e+02 7.900000000000000000e+01
1.010000000000000000e+02 7.900000000000000000e+01
1.790000000000000000e+02 7.900000000000000000e+01
2.200000000000000000e+01 8.000000000000000000e+01
2.300000000000000000e+01 8.000000000000000000e+01
1.000000000000000000e+02 8.000000000000000000e+01
1.010000000000000000e+02 8.000000000000000000e+01
1.790000000000000000e+02 8.000000000000000000e+01
2.200000000000000000e+01 8.100000000000000000e+01
2.300000000000000000e+01 8.100000000000000000e+01
1.000000000000000000e+02 8.100000000000000000e+01
1.010000000000000000e+02 8.100000000000000000e+01
1.790000000000000000e+02 8.100000000000000000e+01
2.200000000000000000e+01 8.200000000000000000e+01
2.300000000000000000e+01 8.200000000000000000e+01
1.000000000000000000e+02 8.200000000000000000e+01
1.010000000000000000e+02 8.200000000000000000e+01
1.780000000000000000e+02 8.200000000000000000e+01
1.790000000000000000e+02 8.200000000000000000e+01
2.200000000000000000e+01 8.300000000000000000e+01
2.300000000000000000e+01 8.300000000000000000e+01
1.000000000000000000e+02 8.300000000000000000e+01
1.010000000000000000e+02 8.300000000000000000e+01
1.780000000000000000e+02 8.300000000000000000e+01
1.790000000000000000e+02 8.300000000000000000e+01
2.200000000000000000e+01 8.400000000000000000e+01
2.300000000000000000e+01 8.400000000000000000e+01
1.000000000000000000e+02 8.400000000000000000e+01
1.010000000000000000e+02 8.400000000000000000e+01
1.780000000000000000e+02 8.400000000000000000e+01
1.790000000000000000e+02 8.400000000000000000e+01
1.800000000000000000e+02 8.400000000000000000e+01
2.200000000000000000e+01 8.500000000000000000e+01
2.300000000000000000e+01 8.500000000000000000e+01
1.000000000000000000e+02 8.500000000000000000e+01
1.010000000000000000e+02 8.500000000000000000e+01
1.780000000000000000e+02 8.500000000000000000e+01
1.800000000000000000e+02 8.500000000000000000e+01
2.200000000000000000e+01 8.600000000000000000e+01
2.300000000000000000e+01 8.600000000000000000e+01
1.000000000000000000e+02 8.600000000000000000e+01
1.010000000000000000e+02 8.600000000000000000e+01
1.780000000000000000e+02 8.600000000000000000e+01
1.800000000000000000e+02 8.600000000000000000e+01
2.200000000000000000e+01 8.700000000000000000e+01
2.300000000000000000e+01 8.700000000000000000e+01
1.000000000000000000e+02 8.700000000000000000e+01
1.010000000000000000e+02 8.700000000000000000e+01
1.780000000000000000e+02 8.700000000000000000e+01
1.800000000000000000e+02 8.700000000000000000e+01
2.200000000000000000e+01 8.800000000000000000e+01
2.300000000000000000e+01 8.800000000000000000e+01
1.000000000000000000e+02 8.800000000000000000e+01
1.010000000000000000e+02 8.800000000000000000e+01
1.780000000000000000e+02 8.800000000000000000e+01
1.800000000000000000e+02 8.800000000000000000e+01
2.200000000000000000e+01 8.900000000000000000e+01
2.300000000000000000e+01 8.900000000000000000e+01
9.900000000000000000e+01 8.900000000000000000e+01
1.000000000000000000e+02 8.900000000000000000e+01
1.010000000000000000e+02 8.900000000000000000e+01
1.780000000000000000e+02 8.900000000000000000e+01
1.800000000000000000e+02 8.900000000000000000e+01
2.100000000000000000e+01 9.000000000000000000e+01
2.200000000000000000e+01 9.000000000000000000e+01
2.300000000000000000e+01 9.000000000000000000e+01
9.900000000000000000e+01 9.000000000000000000e+01
1.010000000000000000e+02 9.000000000000000000e+01
1.780000000000000000e+02 9.000000000000000000e+01
1.800000000000000000e+02 9.000000000000000000e+01
2.100000000000000000e+01 9.100000000000000000e+01
2.400000000000000000e+01 9.100000000000000000e+01
9.900000000000000000e+01 9.100000000000000000e+01
1.010000000000000000e+02 9.100000000000000000e+01
1.780000000000000000e+02 9.100000000000000000e+01
1.800000000000000000e+02 9.100000000000000000e+01
2.100000000000000000e+01 9.200000000000000000e+01
2.400000000000000000e+01 9.200000000000000000e+01
9.900000000000000000e+01 9.200000000000000000e+01
1.010000000000000000e+02 9.200000000000000000e+01
1.780000000000000000e+02 9.200000000000000000e+01
1.800000000000000000e+02 9.200000000000000000e+01
2.100000000000000000e+01 9.300000000000000000e+01
2.400000000000000000e+01 9.300000000000000000e+01
9.900000000000000000e+01 9.300000000000000000e+01
1.010000000000000000e+02 9.300000000000000000e+01
1.780000000000000000e+02 9.300000000000000000e+01
1.800000000000000000e+02 9.300000000000000000e+01
2.100000000000000000e+01 9.400000000000000000e+01
2.400000000000000000e+01 9.400000000000000000e+01
8.800000000000000000e+01 9.400000000000000000e+01
9.900000000000000000e+01 9.400000000000000000e+01
1.010000000000000000e+02 9.400000000000000000e+01
1.280000000000000000e+02 9.400000000000000000e+01
1.680000000000000000e+02 9.400000000000000000e+01
1.780000000000000000e+02 9.400000000000000000e+01
1.800000000000000000e+02 9.400000000000000000e+01
1.000000000000000000e+01 9.500000000000000000e+01
2.100000000000000000e+01 9.500000000000000000e+01
2.400000000000000000e+01 9.500000000000000000e+01
4.900000000000000000e+01 9.500000000000000000e+01
5.000000000000000000e+01 9.500000000000000000e+01
5.100000000000000000e+01 9.500000000000000000e+01
5.200000000000000000e+01 9.500000000000000000e+01
5.300000000000000000e+01 9.500000000000000000e+01
8.800000000000000000e+01 9.500000000000000000e+01
9.900000000000000000e+01 9.500000000000000000e+01
1.010000000000000000e+02 9.500000000000000000e+01
1.260000000000000000e+02 9.500000000000000000e+01
1.270000000000000000e+02 9.500000000000000000e+01
1.280000000000000000e+02 9.500000000000000000e+01
1.290000000000000000e+02 9.500000000000000000e+01
1.670000000000000000e+02 9.500000000000000000e+01
1.680000000000000000e+02 9.500000000000000000e+01
1.780000000000000000e+02 9.500000000000000000e+01
1.800000000000000000e+02 9.500000000000000000e+01
1.000000000000000000e+01 9.600000000000000000e+01
2.100000000000000000e+01 9.600000000000000000e+01
2.400000000000000000e+01 9.600000000000000000e+01
4.700000000000000000e+01 9.600000000000000000e+01
4.800000000000000000e+01 9.600000000000000000e+01
4.900000000000000000e+01 9.600000000000000000e+01
5.000000000000000000e+01 9.600000000000000000e+01
5.100000000000000000e+01 9.600000000000000000e+01
5.200000000000000000e+01 9.600000000000000000e+01
5.300000000000000000e+01 9.600000000000000000e+01
5.400000000000000000e+01 9.600000000000000000e+01
8.700000000000000000e+01 9.600000000000000000e+01
8.800000000000000000e+01 9.600000000000000000e+01
8.900000000000000000e+01 9.600000000000000000e+01
9.000000000000000000e+01 9.600000000000000000e+01
9.900000000000000000e+01 9.600000000000000000e+01
1.010000000000000000e+02 9.600000000000000000e+01
1.240000000000000000e+02 9.600000000000000000e+01
1.260000000000000000e+02 9.600000000000000000e+01
1.270000000000000000e+02 9.600000000000000000e+01
1.280000000000000000e+02 9.600000000000000000e+01
1.290000000000000000e+02 9.600000000000000000e+01
1.300000000000000000e+02 9.600000000000000000e+01
1.660000000000000000e+02 9.600000000000000000e+01
1.670000000000000000e+02 9.600000000000000000e+01
1.680000000000000000e+02 9.600000000000000000e+01
1.780000000000000000e+02 9.600000000000000000e+01
1.800000000000000000e+02 9.600000000000000000e+01
9.000000000000000000e+00 9.700000000000000000e+01
1.000000000000000000e+01 9.700000000000000000e+01
1.100000000000000000e+01 9.700000000000000000e+01
1.200000000000000000e+01 9.700000000000000000e+01
2.100000000000000000e+01 9.700000000000000000e+01
2.400000000000000000e+01 9.700000000000000000e+01
4.600000000000000000e+01 9.700000000000000000e+01
4.700000000000000000e+01 9.700000000000000000e+01
4.800000000000000000e+01 9.700000000000000000e+01
5.000000000000000000e+01 9.700000000000000000e+01
5.100000000000000000e+01 9.700000000000000000e+01
5.200000000000000000e+01 9.700000000000000000e+01
5.300000000000000000e+01 9.700000000000000000e+01
5.400000000000000000e+01 9.700000000000000000e+01
8.600000000000000000e+01 9.700000000000000000e+01
8.700000000000000000e+01 9.700000000000000000e+01
8.900000000000000000e+01 9.700000000000000000e+01
9.000000000000000000e+01 9.700000000000000000e+01
9.900000000000000000e+01 9.700000000000000000e+01
1.010000000000000000e+02 9.700000000000000000e+01
1.230000000000000000e+02 9.700000000000000000e+01
1.240000000000000000e+02 9.700000000000000000e+01
1.250000000000000000e+02 9.700000000000000000e+01
1.260000000000000000e+02 9.700000000000000000e+01
1.270000000000000000e+02 9.700000000000000000e+01
1.280000000000000000e+02 9.700000000000000000e+01
1.290000000000000000e+02 9.700000000000000000e+01
1.300000000000000000e+02 9.700000000000000000e+01
1.310000000000000000e+02 9.700000000000000000e+01
1.320000000000000000e+02 9.700000000000000000e+01
1.330000000000000000e+02 9.700000000000000000e+01
1.640000000000000000e+02 9.700000000000000000e+01
1.650000000000000000e+02 9.700000000000000000e+01
1.660000000000000000e+02 9.700000000000000000e+01
1.670000000000000000e+02 9.700000000000000000e+01
1.680000000000000000e+02 9.700000000000000000e+01
1.780000000000000000e+02 9.700000000000000000e+01
1.800000000000000000e+02 9.700000000000000000e+01
9.000000000000000000e+00 9.800000000000000000e+01
1.000000000000000000e+01 9.800000000000000000e+01
1.100000000000000000e+01 9.800000000000000000e+01
1.200000000000000000e+01 9.800000000000000000e+01
1.300000000000000000e+01 9.800000000000000000e+01
2.100000000000000000e+01 9.800000000000000000e+01
2.400000000000000000e+01 9.800000000000000000e+01
4.600000000000000000e+01 9.800000000000000000e+01
4.800000000000000000e+01 9.800000000000000000e+01
5.300000000000000000e+01 9.800000000000000000e+01
5.400000000000000000e+01 9.800000000000000000e+01
8.600000000000000000e+01 9.800000000000000000e+01
8.700000000000000000e+01 9.800000000000000000e+01
9.000000000000000000e+01 9.800000000000000000e+01
9.100000000000000000e+01 9.800000000000000000e+01
9.900000000000000000e+01 9.800000000000000000e+01
1.020000000000000000e+02 9.800000000000000000e+01
1.220000000000000000e+02 9.800000000000000000e+01
1.230000000000000000e+02 9.800000000000000000e+01
1.240000000000000000e+02 9.800000000000000000e+01
1.250000000000000000e+02 9.800000000000000000e+01
1.260000000000000000e+02 9.800000000000000000e+01
1.310000000000000000e+02 9.800000000000000000e+01
1.320000000000000000e+02 9.800000000000000000e+01
1.330000000000000000e+02 9.800000000000000000e+01
1.640000000000000000e+02 9.800000000000000000e+01
1.650000000000000000e+02 9.800000000000000000e+01
1.660000000000000000e+02 9.800000000000000000e+01
1.680000000000000000e+02 9.800000000000000000e+01
1.690000000000000000e+02 9.800000000000000000e+01
1.780000000000000000e+02 9.800000000000000000e+01
1.800000000000000000e+02 9.800000000000000000e+01
