8.000000000000000000e+00 5.500000000000000000e+01
7.000000000000000000e+00 5.800000000000000000e+01
8.000000000000000000e+00 5.800000000000000000e+01
7.000000000000000000e+00 5.900000000000000000e+01
8.000000000000000000e+00 5.900000000000000000e+01
7.000000000000000000e+00 6.000000000000000000e+01
8.000000000000000000e+00 6.000000000000000000e+01
8.000000000000000000e+00 6.100000000000000000e+01
7.000000000000000000e+00 6.200000000000000000e+01
7.000000000000000000e+00 6.300000000000000000e+01
9.000000000000000000e+00 6.300000000000000000e+01
7.000000000000000000e+00 6.400000000000000000e+01
9.000000000000000000e+00 6.400000000000000000e+01
7.000000000000000000e+00 6.500000000000000000e+01
9.000000000000000000e+00 6.500000000000000000e+01
7.000000000000000000e+00 6.600000000000000000e+01
9.000000000000000000e+00 6.600000000000000000e+01
7.000000000000000000e+00 6.800000000000000000e+01
9.000000000000000000e+00 6.800000000000000000e+01
7.000000000000000000e+00 6.900000000000000000e+01
9.000000000000000000e+00 6.900000000000000000e+01
7.000000000000000000e+00 7.000000000000000000e+01
9.000000000000000000e+00 7.000000000000000000e+01
7.000000000000000000e+00 7.100000000000000000e+01
9.000000000000000000e+00 7.100000000000000000e+01
9.000000000000000000e+00 7.200000000000000000e+01
7.000000000000000000e+00 7.300000000000000000e+01
6.000000000000000000e+00 7.500000000000000000e+01
9.000000000000000000e+00 7.500000000000000000e+01
6.000000000000000000e+00 7.700000000000000000e+01
9.000000000000000000e+00 7.700000000000000000e+01
9.000000000000000000e+00 7.800000000000000000e+01
6.000000000000000000e+00 7.900000000000000000e+01
9.000000000000000000e+00 7.900000000000000000e+01
6.000000000000000000e+00 8.000000000000000000e+01
9.000000000000000000e+00 8.000000000000000000e+01
6.000000000000000000e+00 8.100000000000000000e+01
9.000000000000000000e+00 8.100000000000000000e+01
6.000000000000000000e+00 8.300000000000000000e+01
9.000000000000000000e+00 8.300000000000000000e+01
6.000000000000000000e+00 8.400000000000000000e+01
9.000000000000000000e+00 8.400000000000000000e+01
1.400000000000000000e+02 8.400000000000000000e+01
1.520000000000000000e+02 8.400000000000000000e+01
1.560000000000000000e+02 8.400000000000000000e+01
1.570000000000000000e+02 8.400000000000000000e+01
1.590000000000000000e+02 8.400000000000000000e+01
1.610000000000000000e+02 8.400000000000000000e+01
1.620000000000000000e+02 8.400000000000000000e+01
1.630000000000000000e+02 8.400000000000000000e+01
1.640000000000000000e+02 8.400000000000000000e+01
1.650000000000000000e+02 8.400000000000000000e+01
1.660000000000000000e+02 8.400000000000000000e+01
6.000000000000000000e+00 8.500000000000000000e+01
9.000000000000000000e+00 8.500000000000000000e+01
1.390000000000000000e+02 8.500000000000000000e+01
1.400000000000000000e+02 8.500000000000000000e+01
1.410000000000000000e+02 8.500000000000000000e+01
1.530000000000000000e+02 8.500000000000000000e+01
1.560000000000000000e+02 8.500000000000000000e+01
1.570000000000000000e+02 8.500000000000000000e+01
1.590000000000000000e+02 8.500000000000000000e+01
1.600000000000000000e+02 8.500000000000000000e+01
1.610000000000000000e+02 8.500000000000000000e+01
1.640000000000000000e+02 8.500000000000000000e+01
1.660000000000000000e+02 8.500000000000000000e+01
6.000000000000000000e+00 8.600000000000000000e+01
9.000000000000000000e+00 8.600000000000000000e+01
1.400000000000000000e+02 8.600000000000000000e+01
1.410000000000000000e+02 8.600000000000000000e+01
1.510000000000000000e+02 8.600000000000000000e+01
1.520000000000000000e+02 8.600000000000000000e+01
1.560000000000000000e+02 8.600000000000000000e+01
1.670000000000000000e+02 8.600000000000000000e+01
1.680000000000000000e+02 8.600000000000000000e+01
6.000000000000000000e+00 8.700000000000000000e+01
1.400000000000000000e+02 8.700000000000000000e+01
1.410000000000000000e+02 8.700000000000000000e+01
1.510000000000000000e+02 8.700000000000000000e+01
1.560000000000000000e+02 8.700000000000000000e+01
1.570000000000000000e+02 8.700000000000000000e+01
1.670000000000000000e+02 8.700000000000000000e+01
1.680000000000000000e+02 8.700000000000000000e+01
6.000000000000000000e+00 8.800000000000000000e+01
9.000000000000000000e+00 8.800000000000000000e+01
1.300000000000000000e+02 8.800000000000000000e+01
1.310000000000000000e+02 8.800000000000000000e+01
1.320000000000000000e+02 8.800000000000000000e+01
1.330000000000000000e+02 8.800000000000000000e+01
1.340000000000000000e+02 8.800000000000000000e+01
1.410000000000000000e+02 8.800000000000000000e+01
1.420000000000000000e+02 8.800000000000000000e+01
1.500000000000000000e+02 8.800000000000000000e+01
1.520000000000000000e+02 8.800000000000000000e+01
1.560000000000000000e+02 8.800000000000000000e+01
1.570000000000000000e+02 8.800000000000000000e+01
1.680000000000000000e+02 8.800000000000000000e+01
9.000000000000000000e+00 8.900000000000000000e+01
1.290000000000000000e+02 8.900000000000000000e+01
1.300000000000000000e+02 8.900000000000000000e+01
1.320000000000000000e+02 8.900000000000000000e+01
1.340000000000000000e+02 8.900000000000000000e+01
1.410000000000000000e+02 8.900000000000000000e+01
1.500000000000000000e+02 8.900000000000000000e+01
1.510000000000000000e+02 8.900000000000000000e+01
1.670000000000000000e+02 8.900000000000000000e+01
6.000000000000000000e+00 9.000000000000000000e+01
1.270000000000000000e+02 9.000000000000000000e+01
1.290000000000000000e+02 9.000000000000000000e+01
1.340000000000000000e+02 9.000000000000000000e+01
1.350000000000000000e+02 9.000000000000000000e+01
1.360000000000000000e+02 9.000000000000000000e+01
1.410000000000000000e+02 9.000000000000000000e+01
1.420000000000000000e+02 9.000000000000000000e+01
1.500000000000000000e+02 9.000000000000000000e+01
1.560000000000000000e+02 9.000000000000000000e+01
1.660000000000000000e+02 9.000000000000000000e+01
1.670000000000000000e+02 9.000000000000000000e+01
1.680000000000000000e+02 9.000000000000000000e+01
6.000000000000000000e+00 9.100000000000000000e+01
1.000000000000000000e+01 9.100000000000000000e+01
1.280000000000000000e+02 9.100000000000000000e+01
1.350000000000000000e+02 9.100000000000000000e+01
1.360000000000000000e+02 9.100000000000000000e+01
1.410000000000000000e+02 9.100000000000000000e+01
1.420000000000000000e+02 9.100000000000000000e+01
1.430000000000000000e+02 9.100000000000000000e+01
1.490000000000000000e+02 9.100000000000000000e+01
1.500000000000000000e+02 9.100000000000000000e+01
1.510000000000000000e+02 9.100000000000000000e+01
1.560000000000000000e+02 9.100000000000000000e+01
1.570000000000000000e+02 9.100000000000000000e+01
1.580000000000000000e+02 9.100000000000000000e+01
1.600000000000000000e+02 9.100000000000000000e+01
1.610000000000000000e+02 9.100000000000000000e+01
1.640000000000000000e+02 9.100000000000000000e+01
1.650000000000000000e+02 9.100000000000000000e+01
6.000000000000000000e+00 9.200000000000000000e+01
1.000000000000000000e+01 9.200000000000000000e+01
1.330000000000000000e+02 9.200000000000000000e+01
1.340000000000000000e+02 9.200000000000000000e+01
1.360000000000000000e+02 9.200000000000000000e+01
1.420000000000000000e+02 9.200000000000000000e+01
1.490000000000000000e+02 9.200000000000000000e+01
1.500000000000000000e+02 9.200000000000000000e+01
1.570000000000000000e+02 9.200000000000000000e+01
1.580000000000000000e+02 9.200000000000000000e+01
1.590000000000000000e+02 9.200000000000000000e+01
1.600000000000000000e+02 9.200000000000000000e+01
1.620000000000000000e+02 9.200000000000000000e+01
1.640000000000000000e+02 9.200000000000000000e+01
1.000000000000000000e+01 9.300000000000000000e+01
1.290000000000000000e+02 9.300000000000000000e+01
1.300000000000000000e+02 9.300000000000000000e+01
1.310000000000000000e+02 9.300000000000000000e+01
1.330000000000000000e+02 9.300000000000000000e+01
1.350000000000000000e+02 9.300000000000000000e+01
1.360000000000000000e+02 9.300000000000000000e+01
1.490000000000000000e+02 9.300000000000000000e+01
1.560000000000000000e+02 9.300000000000000000e+01
1.570000000000000000e+02 9.300000000000000000e+01
1.630000000000000000e+02 9.300000000000000000e+01
1.640000000000000000e+02 9.300000000000000000e+01
6.000000000000000000e+00 9.400000000000000000e+01
1.000000000000000000e+01 9.400000000000000000e+01
1.280000000000000000e+02 9.400000000000000000e+01
1.300000000000000000e+02 9.400000000000000000e+01
1.310000000000000000e+02 9.400000000000000000e+01
1.320000000000000000e+02 9.400000000000000000e+01
1.360000000000000000e+02 9.400000000000000000e+01
1.430000000000000000e+02 9.400000000000000000e+01
1.490000000000000000e+02 9.400000000000000000e+01
1.560000000000000000e+02 9.400000000000000000e+01
1.630000000000000000e+02 9.400000000000000000e+01
1.640000000000000000e+02 9.400000000000000000e+01
6.000000000000000000e+00 9.500000000000000000e+01
1.000000000000000000e+01 9.500000000000000000e+01
1.280000000000000000e+02 9.500000000000000000e+01
1.290000000000000000e+02 9.500000000000000000e+01
1.350000000000000000e+02 9.500000000000000000e+01
1.360000000000000000e+02 9.500000000000000000e+01
1.430000000000000000e+02 9.500000000000000000e+01
1.490000000000000000e+02 9.500000000000000000e+01
1.560000000000000000e+02 9.500000000000000000e+01
1.640000000000000000e+02 9.500000000000000000e+01
6.000000000000000000e+00 9.600000000000000000e+01
1.000000000000000000e+01 9.600000000000000000e+01
1.270000000000000000e+02 9.600000000000000000e+01
1.350000000000000000e+02 9.600000000000000000e+01
1.360000000000000000e+02 9.600000000000000000e+01
1.440000000000000000e+02 9.600000000000000000e+01
1.450000000000000000e+02 9.600000000000000000e+01
1.480000000000000000e+02 9.600000000000000000e+01
1.560000000000000000e+02 9.600000000000000000e+01
1.570000000000000000e+02 9.600000000000000000e+01
1.640000000000000000e+02 9.600000000000000000e+01
1.660000000000000000e+02 9.600000000000000000e+01
6.000000000000000000e+00 9.700000000000000000e+01
1.000000000000000000e+01 9.700000000000000000e+01
1.350000000000000000e+02 9.700000000000000000e+01
1.360000000000000000e+02 9.700000000000000000e+01
1.450000000000000000e+02 9.700000000000000000e+01
1.470000000000000000e+02 9.700000000000000000e+01
1.560000000000000000e+02 9.700000000000000000e+01
1.570000000000000000e+02 9.700000000000000000e+01
1.650000000000000000e+02 9.700000000000000000e+01
1.660000000000000000e+02 9.700000000000000000e+01
1.670000000000000000e+02 9.700000000000000000e+01
6.000000000000000000e+00 9.800000000000000000e+01
1.000000000000000000e+01 9.800000000000000000e+01
4.900000000000000000e+01 9.800000000000000000e+01
1.280000000000000000e+02 9.800000000000000000e+01
1.330000000000000000e+02 9.800000000000000000e+01
1.340000000000000000e+02 9.800000000000000000e+01
1.360000000000000000e+02 9.800000000000000000e+01
1.450000000000000000e+02 9.800000000000000000e+01
1.470000000000000000e+02 9.800000000000000000e+01
1.480000000000000000e+02 9.800000000000000000e+01
1.560000000000000000e+02 9.800000000000000000e+01
1.570000000000000000e+02 9.800000000000000000e+01
1.660000000000000000e+02 9.800000000000000000e+01
1.670000000000000000e+02 9.800000000000000000e+01
6.000000000000000000e+00 9.900000000000000000e+01
4.700000000000000000e+01 9.900000000000000000e+01
4.800000000000000000e+01 9.900000000000000000e+01
5.100000000000000000e+01 9.900000000000000000e+01
1.300000000000000000e+02 9.900000000000000000e+01
1.310000000000000000e+02 9.900000000000000000e+01
1.320000000000000000e+02 9.900000000000000000e+01
1.330000000000000000e+02 9.900000000000000000e+01
1.340000000000000000e+02 9.900000000000000000e+01
1.350000000000000000e+02 9.900000000000000000e+01
1.360000000000000000e+02 9.900000000000000000e+01
1.440000000000000000e+02 9.900000000000000000e+01
1.460000000000000000e+02 9.900000000000000000e+01
1.470000000000000000e+02 9.900000000000000000e+01
1.570000000000000000e+02 9.900000000000000000e+01
1.660000000000000000e+02 9.900000000000000000e+01
1.680000000000000000e+02 9.900000000000000000e+01
6.000000000000000000e+00 1.000000000000000000e+02
1.000000000000000000e+01 1.000000000000000000e+02
4.500000000000000000e+01 1.000000000000000000e+02
4.800000000000000000e+01 1.000000000000000000e+02
4.900000000000000000e+01 1.000000000000000000e+02
5.000000000000000000e+01 1.000000000000000000e+02
5.100000000000000000e+01 1.000000000000000000e+02
1.290000000000000000e+02 1.000000000000000000e+02
1.300000000000000000e+02 1.000000000000000000e+02
1.310000000000000000e+02 1.000000000000000000e+02
1.320000000000000000e+02 1.000000000000000000e+02
1.360000000000000000e+02 1.000000000000000000e+02
1.370000000000000000e+02 1.000000000000000000e+02
1.450000000000000000e+02 1.000000000000000000e+02
1.460000000000000000e+02 1.000000000000000000e+02
1.470000000000000000e+02 1.000000000000000000e+02
1.560000000000000000e+02 1.000000000000000000e+02
1.670000000000000000e+02 1.000000000000000000e+02
1.680000000000000000e+02 1.000000000000000000e+02
6.000000000000000000e+00 1.010000000000000000e+02
1.000000000000000000e+01 1.010000000000000000e+02
4.500000000000000000e+01 1.010000000000000000e+02
4.600000000000000000e+01 1.010000000000000000e+02
4.900000000000000000e+01 1.010000000000000000e+02
5.000000000000000000e+01 1.010000000000000000e+02
5.100000000000000000e+01 1.010000000000000000e+02
1.350000000000000000e+02 1.010000000000000000e+02
1.360000000000000000e+02 1.010000000000000000e+02
6.000000000000000000e+00 1.020000000000000000e+02
1.000000000000000000e+01 1.020000000000000000e+02
4.500000000000000000e+01 1.020000000000000000e+02
4.600000000000000000e+01 1.020000000000000000e+02
4.800000000000000000e+01 1.020000000000000000e+02
4.900000000000000000e+01 1.020000000000000000e+02
5.000000000000000000e+01 1.020000000000000000e+02
5.100000000000000000e+01 1.020000000000000000e+02
1.360000000000000000e+02 1.020000000000000000e+02
1.000000000000000000e+01 1.030000000000000000e+02
4.400000000000000000e+01 1.030000000000000000e+02
4.500000000000000000e+01 1.030000000000000000e+02
4.600000000000000000e+01 1.030000000000000000e+02
4.900000000000000000e+01 1.030000000000000000e+02
5.200000000000000000e+01 1.030000000000000000e+02
1.360000000000000000e+02 1.030000000000000000e+02
6.000000000000000000e+00 1.040000000000000000e+02
1.000000000000000000e+01 1.040000000000000000e+02
4.300000000000000000e+01 1.040000000000000000e+02
4.400000000000000000e+01 1.040000000000000000e+02
5.200000000000000000e+01 1.040000000000000000e+02
1.350000000000000000e+02 1.040000000000000000e+02
6.000000000000000000e+00 1.050000000000000000e+02
1.100000000000000000e+01 1.050000000000000000e+02
4.200000000000000000e+01 1.050000000000000000e+02
4.400000000000000000e+01 1.050000000000000000e+02
5.200000000000000000e+01 1.050000000000000000e+02
1.340000000000000000e+02 1.050000000000000000e+02
1.360000000000000000e+02 1.050000000000000000e+02
1.100000000000000000e+01 1.060000000000000000e+02
4.100000000000000000e+01 1.060000000000000000e+02
5.200000000000000000e+01 1.060000000000000000e+02
5.300000000000000000e+01 1.060000000000000000e+02
1.340000000000000000e+02 1.060000000000000000e+02
1.360000000000000000e+02 1.060000000000000000e+02
6.000000000000000000e+00 1.070000000000000000e+02
4.000000000000000000e+01 1.070000000000000000e+02
4.100000000000000000e+01 1.070000000000000000e+02
4.200000000000000000e+01 1.070000000000000000e+02
5.300000000000000000e+01 1.070000000000000000e+02
1.340000000000000000e+02 1.070000000000000000e+02
1.360000000000000000e+02 1.070000000000000000e+02
1.370000000000000000e+02 1.070000000000000000e+02
1.510000000000000000e+02 1.070000000000000000e+02
1.100000000000000000e+01 1.080000000000000000e+02
4.100000000000000000e+01 1.080000000000000000e+02
5.300000000000000000e+01 1.080000000000000000e+02
5.400000000000000000e+01 1.080000000000000000e+02
1.280000000000000000e+02 1.080000000000000000e+02
1.310000000000000000e+02 1.080000000000000000e+02
1.330000000000000000e+02 1.080000000000000000e+02
1.370000000000000000e+02 1.080000000000000000e+02
1.450000000000000000e+02 1.080000000000000000e+02
1.460000000000000000e+02 1.080000000000000000e+02
1.470000000000000000e+02 1.080000000000000000e+02
1.480000000000000000e+02 1.080000000000000000e+02
1.490000000000000000e+02 1.080000000000000000e+02
1.500000000000000000e+02 1.080000000000000000e+02
1.510000000000000000e+02 1.080000000000000000e+02
1.520000000000000000e+02 1.080000000000000000e+02
1.530000000000000000e+02 1.080000000000000000e+02
1.540000000000000000e+02 1.080000000000000000e+02
1.550000000000000000e+02 1.080000000000000000e+02
1.580000000000000000e+02 1.080000000000000000e+02
1.590000000000000000e+02 1.080000000000000000e+02
1.970000000000000000e+02 1.080000000000000000e+02
1.980000000000000000e+02 1.080000000000000000e+02
