2.930000000000000000e+02 1.800000000000000000e+01
3.550000000000000000e+02 1.800000000000000000e+01
4.800000000000000000e+02 1.800000000000000000e+01
1.680000000000000000e+02 1.900000000000000000e+01
2.930000000000000000e+02 1.900000000000000000e+01
3.550000000000000000e+02 1.900000000000000000e+01
4.800000000000000000e+02 1.900000000000000000e+01
1.680000000000000000e+02 2.000000000000000000e+01
2.930000000000000000e+02 2.000000000000000000e+01
3.550000000000000000e+02 2.000000000000000000e+01
4.800000000000000000e+02 2.000000000000000000e+01
1.680000000000000000e+02 2.100000000000000000e+01
2.930000000000000000e+02 2.100000000000000000e+01
3.550000000000000000e+02 2.100000000000000000e+01
4.180000000000000000e+02 2.100000000000000000e+01
4.800000000000000000e+02 2.100000000000000000e+01
6.000000000000000000e+02 2.100000000000000000e+01
1.680000000000000000e+02 2.200000000000000000e+01
2.930000000000000000e+02 2.200000000000000000e+01
3.550000000000000000e+02 2.200000000000000000e+01
4.180000000000000000e+02 2.200000000000000000e+01
4.800000000000000000e+02 2.200000000000000000e+01
6.000000000000000000e+02 2.200000000000000000e+01
1.680000000000000000e+02 2.300000000000000000e+01
2.930000000000000000e+02 2.300000000000000000e+01
3.550000000000000000e+02 2.300000000000000000e+01
4.180000000000000000e+02 2.300000000000000000e+01
4.800000000000000000e+02 2.300000000000000000e+01
6.000000000000000000e+02 2.300000000000000000e+01
1.200000000000000000e+01 2.400000000000000000e+01
1.300000000000000000e+01 2.400000000000000000e+01
1.400000000000000000e+01 2.400000000000000000e+01
1.500000000000000000e+01 2.400000000000000000e+01
1.600000000000000000e+01 2.400000000000000000e+01
1.700000000000000000e+01 2.400000000000000000e+01
1.800000000000000000e+01 2.400000000000000000e+01
1.900000000000000000e+01 2.400000000000000000e+01
2.000000000000000000e+01 2.400000000000000000e+01
2.100000000000000000e+01 2.400000000000000000e+01
2.200000000000000000e+01 2.400000000000000000e+01
2.300000000000000000e+01 2.400000000000000000e+01
2.400000000000000000e+01 2.400000000000000000e+01
2.500000000000000000e+01 2.400000000000000000e+01
2.600000000000000000e+01 2.400000000000000000e+01
1.680000000000000000e+02 2.400000000000000000e+01
2.300000000000000000e+02 2.400000000000000000e+01
2.930000000000000000e+02 2.400000000000000000e+01
3.550000000000000000e+02 2.400000000000000000e+01
4.180000000000000000e+02 2.400000000000000000e+01
4.800000000000000000e+02 2.400000000000000000e+01
5.400000000000000000e+02 2.400000000000000000e+01
6.000000000000000000e+02 2.400000000000000000e+01
1.200000000000000000e+01 2.500000000000000000e+01
2.600000000000000000e+01 2.500000000000000000e+01
4.400000000000000000e+01 2.500000000000000000e+01
1.680000000000000000e+02 2.500000000000000000e+01
2.300000000000000000e+02 2.500000000000000000e+01
2.930000000000000000e+02 2.500000000000000000e+01
3.550000000000000000e+02 2.500000000000000000e+01
4.180000000000000000e+02 2.500000000000000000e+01
4.800000000000000000e+02 2.500000000000000000e+01
5.400000000000000000e+02 2.500000000000000000e+01
6.000000000000000000e+02 2.500000000000000000e+01
6.600000000000000000e+02 2.500000000000000000e+01
1.200000000000000000e+01 2.600000000000000000e+01
2.600000000000000000e+01 2.600000000000000000e+01
4.400000000000000000e+01 2.600000000000000000e+01
1.680000000000000000e+02 2.600000000000000000e+01
2.290000000000000000e+02 2.600000000000000000e+01
2.300000000000000000e+02 2.600000000000000000e+01
2.930000000000000000e+02 2.600000000000000000e+01
3.550000000000000000e+02 2.600000000000000000e+01
4.180000000000000000e+02 2.600000000000000000e+01
4.800000000000000000e+02 2.600000000000000000e+01
5.400000000000000000e+02 2.600000000000000000e+01
6.000000000000000000e+02 2.600000000000000000e+01
6.600000000000000000e+02 2.600000000000000000e+01
1.200000000000000000e+01 2.700000000000000000e+01
2.600000000000000000e+01 2.700000000000000000e+01
4.300000000000000000e+01 2.700000000000000000e+01
4.400000000000000000e+01 2.700000000000000000e+01
1.070000000000000000e+02 2.700000000000000000e+01
1.680000000000000000e+02 2.700000000000000000e+01
2.290000000000000000e+02 2.700000000000000000e+01
2.300000000000000000e+02 2.700000000000000000e+01
2.930000000000000000e+02 2.700000000000000000e+01
3.550000000000000000e+02 2.700000000000000000e+01
4.180000000000000000e+02 2.700000000000000000e+01
4.800000000000000000e+02 2.700000000000000000e+01
5.400000000000000000e+02 2.700000000000000000e+01
6.000000000000000000e+02 2.700000000000000000e+01
6.600000000000000000e+02 2.700000000000000000e+01
1.200000000000000000e+01 2.800000000000000000e+01
2.600000000000000000e+01 2.800000000000000000e+01
4.300000000000000000e+01 2.800000000000000000e+01
4.400000000000000000e+01 2.800000000000000000e+01
1.060000000000000000e+02 2.800000000000000000e+01
1.070000000000000000e+02 2.800000000000000000e+01
1.680000000000000000e+02 2.800000000000000000e+01
2.290000000000000000e+02 2.800000000000000000e+01
2.300000000000000000e+02 2.800000000000000000e+01
2.930000000000000000e+02 2.800000000000000000e+01
3.550000000000000000e+02 2.800000000000000000e+01
4.180000000000000000e+02 2.800000000000000000e+01
4.800000000000000000e+02 2.800000000000000000e+01
5.400000000000000000e+02 2.800000000000000000e+01
6.000000000000000000e+02 2.800000000000000000e+01
6.600000000000000000e+02 2.800000000000000000e+01
7.180000000000000000e+02 2.800000000000000000e+01
7.190000000000000000e+02 2.800000000000000000e+01
1.200000000000000000e+01 2.900000000000000000e+01
2.600000000000000000e+01 2.900000000000000000e+01
4.300000000000000000e+01 2.900000000000000000e+01
4.400000000000000000e+01 2.900000000000000000e+01
1.060000000000000000e+02 2.900000000000000000e+01
1.070000000000000000e+02 2.900000000000000000e+01
1.680000000000000000e+02 2.900000000000000000e+01
2.290000000000000000e+02 2.900000000000000000e+01
2.300000000000000000e+02 2.900000000000000000e+01
2.930000000000000000e+02 2.900000000000000000e+01
3.550000000000000000e+02 2.900000000000000000e+01
4.180000000000000000e+02 2.900000000000000000e+01
4.800000000000000000e+02 2.900000000000000000e+01
5.400000000000000000e+02 2.900000000000000000e+01
5.410000000000000000e+02 2.900000000000000000e+01
6.000000000000000000e+02 2.900000000000000000e+01
6.600000000000000000e+02 2.900000000000000000e+01
6.610000000000000000e+02 2.900000000000000000e+01
7.180000000000000000e+02 2.900000000000000000e+01
7.190000000000000000e+02 2.900000000000000000e+01
1.200000000000000000e+01 3.000000000000000000e+01
2.600000000000000000e+01 3.000000000000000000e+01
4.300000000000000000e+01 3.000000000000000000e+01
4.400000000000000000e+01 3.000000000000000000e+01
1.060000000000000000e+02 3.000000000000000000e+01
1.070000000000000000e+02 3.000000000000000000e+01
1.680000000000000000e+02 3.000000000000000000e+01
2.290000000000000000e+02 3.000000000000000000e+01
2.300000000000000000e+02 3.000000000000000000e+01
2.930000000000000000e+02 3.000000000000000000e+01
3.550000000000000000e+02 3.000000000000000000e+01
4.180000000000000000e+02 3.000000000000000000e+01
4.800000000000000000e+02 3.000000000000000000e+01
5.400000000000000000e+02 3.000000000000000000e+01
5.410000000000000000e+02 3.000000000000000000e+01
6.000000000000000000e+02 3.000000000000000000e+01
6.600000000000000000e+02 3.000000000000000000e+01
6.610000000000000000e+02 3.000000000000000000e+01
7.180000000000000000e+02 3.000000000000000000e+01
7.190000000000000000e+02 3.000000000000000000e+01
1.200000000000000000e+01 3.100000000000000000e+01
2.600000000000000000e+01 3.100000000000000000e+01
4.300000000000000000e+01 3.100000000000000000e+01
4.400000000000000000e+01 3.100000000000000000e+01
1.060000000000000000e+02 3.100000000000000000e+01
1.070000000000000000e+02 3.100000000000000000e+01
1.670000000000000000e+02 3.100000000000000000e+01
2.290000000000000000e+02 3.100000000000000000e+01
2.300000000000000000e+02 3.100000000000000000e+01
2.930000000000000000e+02 3.100000000000000000e+01
3.550000000000000000e+02 3.100000000000000000e+01
4.180000000000000000e+02 3.100000000000000000e+01
4.800000000000000000e+02 3.100000000000000000e+01
5.410000000000000000e+02 3.100000000000000000e+01
6.000000000000000000e+02 3.100000000000000000e+01
6.600000000000000000e+02 3.100000000000000000e+01
6.610000000000000000e+02 3.100000000000000000e+01
7.180000000000000000e+02 3.100000000000000000e+01
7.190000000000000000e+02 3.100000000000000000e+01
1.200000000000000000e+01 3.200000000000000000e+01
2.600000000000000000e+01 3.200000000000000000e+01
4.300000000000000000e+01 3.200000000000000000e+01
4.400000000000000000e+01 3.200000000000000000e+01
1.060000000000000000e+02 3.200000000000000000e+01
1.070000000000000000e+02 3.200000000000000000e+01
1.670000000000000000e+02 3.200000000000000000e+01
2.290000000000000000e+02 3.200000000000000000e+01
2.300000000000000000e+02 3.200000000000000000e+01
2.930000000000000000e+02 3.200000000000000000e+01
3.550000000000000000e+02 3.200000000000000000e+01
4.180000000000000000e+02 3.200000000000000000e+01
4.800000000000000000e+02 3.200000000000000000e+01
5.410000000000000000e+02 3.200000000000000000e+01
6.610000000000000000e+02 3.200000000000000000e+01
7.180000000000000000e+02 3.200000000000000000e+01
7.190000000000000000e+02 3.200000000000000000e+01
1.200000000000000000e+01 3.300000000000000000e+01
2.600000000000000000e+01 3.300000000000000000e+01
4.300000000000000000e+01 3.300000000000000000e+01
4.400000000000000000e+01 3.300000000000000000e+01
1.060000000000000000e+02 3.300000000000000000e+01
1.070000000000000000e+02 3.300000000000000000e+01
1.670000000000000000e+02 3.300000000000000000e+01
2.290000000000000000e+02 3.300000000000000000e+01
2.300000000000000000e+02 3.300000000000000000e+01
2.930000000000000000e+02 3.300000000000000000e+01
3.550000000000000000e+02 3.300000000000000000e+01
4.190000000000000000e+02 3.300000000000000000e+01
4.800000000000000000e+02 3.300000000000000000e+01
5.410000000000000000e+02 3.300000000000000000e+01
6.010000000000000000e+02 3.300000000000000000e+01
6.610000000000000000e+02 3.300000000000000000e+01
7.180000000000000000e+02 3.300000000000000000e+01
7.190000000000000000e+02 3.300000000000000000e+01
1.200000000000000000e+01 3.400000000000000000e+01
2.600000000000000000e+01 3.400000000000000000e+01
4.300000000000000000e+01 3.400000000000000000e+01
4.400000000000000000e+01 3.400000000000000000e+01
1.060000000000000000e+02 3.400000000000000000e+01
1.070000000000000000e+02 3.400000000000000000e+01
1.670000000000000000e+02 3.400000000000000000e+01
2.930000000000000000e+02 3.400000000000000000e+01
4.190000000000000000e+02 3.400000000000000000e+01
5.410000000000000000e+02 3.400000000000000000e+01
6.010000000000000000e+02 3.400000000000000000e+01
6.610000000000000000e+02 3.400000000000000000e+01
7.180000000000000000e+02 3.400000000000000000e+01
7.190000000000000000e+02 3.400000000000000000e+01
1.200000000000000000e+01 3.500000000000000000e+01
2.600000000000000000e+01 3.500000000000000000e+01
4.400000000000000000e+01 3.500000000000000000e+01
1.060000000000000000e+02 3.500000000000000000e+01
1.070000000000000000e+02 3.500000000000000000e+01
1.670000000000000000e+02 3.500000000000000000e+01
2.930000000000000000e+02 3.500000000000000000e+01
4.190000000000000000e+02 3.500000000000000000e+01
5.410000000000000000e+02 3.500000000000000000e+01
6.010000000000000000e+02 3.500000000000000000e+01
6.610000000000000000e+02 3.500000000000000000e+01
7.180000000000000000e+02 3.500000000000000000e+01
7.190000000000000000e+02 3.500000000000000000e+01
1.200000000000000000e+01 3.600000000000000000e+01
2.600000000000000000e+01 3.600000000000000000e+01
3.400000000000000000e+01 3.600000000000000000e+01
4.400000000000000000e+01 3.600000000000000000e+01
1.070000000000000000e+02 3.600000000000000000e+01
1.670000000000000000e+02 3.600000000000000000e+01
2.930000000000000000e+02 3.600000000000000000e+01
4.190000000000000000e+02 3.600000000000000000e+01
5.410000000000000000e+02 3.600000000000000000e+01
6.010000000000000000e+02 3.600000000000000000e+01
6.610000000000000000e+02 3.600000000000000000e+01
7.190000000000000000e+02 3.600000000000000000e+01
1.200000000000000000e+01 3.700000000000000000e+01
2.600000000000000000e+01 3.700000000000000000e+01
3.400000000000000000e+01 3.700000000000000000e+01
1.070000000000000000e+02 3.700000000000000000e+01
1.670000000000000000e+02 3.700000000000000000e+01
4.190000000000000000e+02 3.700000000000000000e+01
5.410000000000000000e+02 3.700000000000000000e+01
6.010000000000000000e+02 3.700000000000000000e+01
6.610000000000000000e+02 3.700000000000000000e+01
7.190000000000000000e+02 3.700000000000000000e+01
1.200000000000000000e+01 3.800000000000000000e+01
2.600000000000000000e+01 3.800000000000000000e+01
3.400000000000000000e+01 3.800000000000000000e+01
1.070000000000000000e+02 3.800000000000000000e+01
1.670000000000000000e+02 3.800000000000000000e+01
4.190000000000000000e+02 3.800000000000000000e+01
5.410000000000000000e+02 3.800000000000000000e+01
6.010000000000000000e+02 3.800000000000000000e+01
6.610000000000000000e+02 3.800000000000000000e+01
7.190000000000000000e+02 3.800000000000000000e+01
1.200000000000000000e+01 3.900000000000000000e+01
2.600000000000000000e+01 3.900000000000000000e+01
3.400000000000000000e+01 3.900000000000000000e+01
3.700000000000000000e+01 3.900000000000000000e+01
1.670000000000000000e+02 3.900000000000000000e+01
3.560000000000000000e+02 3.900000000000000000e+01
4.190000000000000000e+02 3.900000000000000000e+01
5.410000000000000000e+02 3.900000000000000000e+01
6.010000000000000000e+02 3.900000000000000000e+01
6.610000000000000000e+02 3.900000000000000000e+01
7.190000000000000000e+02 3.900000000000000000e+01
1.200000000000000000e+01 4.000000000000000000e+01
2.600000000000000000e+01 4.000000000000000000e+01
3.400000000000000000e+01 4.000000000000000000e+01
1.670000000000000000e+02 4.000000000000000000e+01
3.560000000000000000e+02 4.000000000000000000e+01
4.190000000000000000e+02 4.000000000000000000e+01
5.410000000000000000e+02 4.000000000000000000e+01
6.010000000000000000e+02 4.000000000000000000e+01
1.200000000000000000e+01 4.100000000000000000e+01
2.600000000000000000e+01 4.100000000000000000e+01
3.400000000000000000e+01 4.100000000000000000e+01
3.560000000000000000e+02 4.100000000000000000e+01
5.410000000000000000e+02 4.100000000000000000e+01
1.200000000000000000e+01 4.200000000000000000e+01
2.600000000000000000e+01 4.200000000000000000e+01
3.400000000000000000e+01 4.200000000000000000e+01
3.560000000000000000e+02 4.200000000000000000e+01
5.410000000000000000e+02 4.200000000000000000e+01
1.200000000000000000e+01 4.300000000000000000e+01
2.600000000000000000e+01 4.300000000000000000e+01
3.400000000000000000e+01 4.300000000000000000e+01
2.460000000000000000e+02 4.300000000000000000e+01
2.470000000000000000e+02 4.300000000000000000e+01
3.560000000000000000e+02 4.300000000000000000e+01
1.200000000000000000e+01 4.400000000000000000e+01
2.600000000000000000e+01 4.400000000000000000e+01
3.400000000000000000e+01 4.400000000000000000e+01
2.450000000000000000e+02 4.400000000000000000e+01
3.560000000000000000e+02 4.400000000000000000e+01
5.560000000000000000e+02 4.400000000000000000e+01
6.170000000000000000e+02 4.400000000000000000e+01
6.180000000000000000e+02 4.400000000000000000e+01
1.200000000000000000e+01 4.500000000000000000e+01
2.600000000000000000e+01 4.500000000000000000e+01
1.230000000000000000e+02 4.500000000000000000e+01
1.240000000000000000e+02 4.500000000000000000e+01
1.860000000000000000e+02 4.500000000000000000e+01
3.100000000000000000e+02 4.500000000000000000e+01
4.810000000000000000e+02 4.500000000000000000e+01
5.550000000000000000e+02 4.500000000000000000e+01
1.200000000000000000e+01 4.600000000000000000e+01
2.600000000000000000e+01 4.600000000000000000e+01
5.900000000000000000e+01 4.600000000000000000e+01
6.200000000000000000e+01 4.600000000000000000e+01
2.440000000000000000e+02 4.600000000000000000e+01
2.920000000000000000e+02 4.600000000000000000e+01
2.940000000000000000e+02 4.600000000000000000e+01
4.370000000000000000e+02 4.600000000000000000e+01
4.810000000000000000e+02 4.600000000000000000e+01
5.580000000000000000e+02 4.600000000000000000e+01
6.150000000000000000e+02 4.600000000000000000e+01
6.190000000000000000e+02 4.600000000000000000e+01
1.200000000000000000e+01 4.700000000000000000e+01
2.600000000000000000e+01 4.700000000000000000e+01
1.250000000000000000e+02 4.700000000000000000e+01
2.490000000000000000e+02 4.700000000000000000e+01
2.920000000000000000e+02 4.700000000000000000e+01
2.940000000000000000e+02 4.700000000000000000e+01
3.700000000000000000e+02 4.700000000000000000e+01
4.810000000000000000e+02 4.700000000000000000e+01
5.540000000000000000e+02 4.700000000000000000e+01
1.200000000000000000e+01 4.800000000000000000e+01
2.600000000000000000e+01 4.800000000000000000e+01
5.800000000000000000e+01 4.800000000000000000e+01
1.210000000000000000e+02 4.800000000000000000e+01
2.920000000000000000e+02 4.800000000000000000e+01
2.940000000000000000e+02 4.800000000000000000e+01
3.120000000000000000e+02 4.800000000000000000e+01
4.380000000000000000e+02 4.800000000000000000e+01
4.790000000000000000e+02 4.800000000000000000e+01
4.810000000000000000e+02 4.800000000000000000e+01
4.990000000000000000e+02 4.800000000000000000e+01
1.200000000000000000e+01 4.900000000000000000e+01
2.600000000000000000e+01 4.900000000000000000e+01
3.600000000000000000e+01 4.900000000000000000e+01
1.260000000000000000e+02 4.900000000000000000e+01
1.600000000000000000e+02 4.900000000000000000e+01
2.500000000000000000e+02 4.900000000000000000e+01
2.920000000000000000e+02 4.900000000000000000e+01
2.940000000000000000e+02 4.900000000000000000e+01
3.070000000000000000e+02 4.900000000000000000e+01
3.480000000000000000e+02 4.900000000000000000e+01
3.750000000000000000e+02 4.900000000000000000e+01
4.110000000000000000e+02 4.900000000000000000e+01
4.730000000000000000e+02 4.900000000000000000e+01
4.790000000000000000e+02 4.900000000000000000e+01
5.330000000000000000e+02 4.900000000000000000e+01
5.930000000000000000e+02 4.900000000000000000e+01
1.200000000000000000e+01 5.000000000000000000e+01
2.600000000000000000e+01 5.000000000000000000e+01
3.400000000000000000e+01 5.000000000000000000e+01
3.500000000000000000e+01 5.000000000000000000e+01
5.700000000000000000e+01 5.000000000000000000e+01
1.200000000000000000e+02 5.000000000000000000e+01
1.590000000000000000e+02 5.000000000000000000e+01
1.800000000000000000e+02 5.000000000000000000e+01
1.880000000000000000e+02 5.000000000000000000e+01
2.200000000000000000e+02 5.000000000000000000e+01
2.210000000000000000e+02 5.000000000000000000e+01
2.410000000000000000e+02 5.000000000000000000e+01
2.510000000000000000e+02 5.000000000000000000e+01
2.850000000000000000e+02 5.000000000000000000e+01
2.860000000000000000e+02 5.000000000000000000e+01
2.920000000000000000e+02 5.000000000000000000e+01
2.940000000000000000e+02 5.000000000000000000e+01
3.460000000000000000e+02 5.000000000000000000e+01
3.470000000000000000e+02 5.000000000000000000e+01
3.490000000000000000e+02 5.000000000000000000e+01
3.540000000000000000e+02 5.000000000000000000e+01
4.090000000000000000e+02 5.000000000000000000e+01
4.100000000000000000e+02 5.000000000000000000e+01
4.120000000000000000e+02 5.000000000000000000e+01
4.170000000000000000e+02 5.000000000000000000e+01
4.390000000000000000e+02 5.000000000000000000e+01
4.710000000000000000e+02 5.000000000000000000e+01
4.720000000000000000e+02 5.000000000000000000e+01
4.790000000000000000e+02 5.000000000000000000e+01
5.000000000000000000e+02 5.000000000000000000e+01
5.320000000000000000e+02 5.000000000000000000e+01
5.340000000000000000e+02 5.000000000000000000e+01
5.910000000000000000e+02 5.000000000000000000e+01
5.920000000000000000e+02 5.000000000000000000e+01
5.990000000000000000e+02 5.000000000000000000e+01
6.130000000000000000e+02 5.000000000000000000e+01
6.210000000000000000e+02 5.000000000000000000e+01
6.520000000000000000e+02 5.000000000000000000e+01
6.730000000000000000e+02 5.000000000000000000e+01
7.110000000000000000e+02 5.000000000000000000e+01
1.200000000000000000e+01 5.100000000000000000e+01
2.600000000000000000e+01 5.100000000000000000e+01
5.600000000000000000e+01 5.100000000000000000e+01
9.700000000000000000e+01 5.100000000000000000e+01
1.270000000000000000e+02 5.100000000000000000e+01
1.580000000000000000e+02 5.100000000000000000e+01
1.790000000000000000e+02 5.100000000000000000e+01
1.890000000000000000e+02 5.100000000000000000e+01
2.390000000000000000e+02 5.100000000000000000e+01
2.840000000000000000e+02 5.100000000000000000e+01
2.870000000000000000e+02 5.100000000000000000e+01
3.540000000000000000e+02 5.100000000000000000e+01
3.670000000000000000e+02 5.100000000000000000e+01
4.170000000000000000e+02 5.100000000000000000e+01
4.290000000000000000e+02 5.100000000000000000e+01
4.400000000000000000e+02 5.100000000000000000e+01
4.790000000000000000e+02 5.100000000000000000e+01
5.990000000000000000e+02 5.100000000000000000e+01
6.110000000000000000e+02 5.100000000000000000e+01
7.100000000000000000e+02 5.100000000000000000e+01
7.120000000000000000e+02 5.100000000000000000e+01
1.100000000000000000e+01 5.200000000000000000e+01
1.200000000000000000e+01 5.200000000000000000e+01
2.600000000000000000e+01 5.200000000000000000e+01
2.700000000000000000e+01 5.200000000000000000e+01
2.800000000000000000e+01 5.200000000000000000e+01
2.900000000000000000e+01 5.200000000000000000e+01
3.300000000000000000e+01 5.200000000000000000e+01
6.600000000000000000e+01 5.200000000000000000e+01
6.700000000000000000e+01 5.200000000000000000e+01
6.800000000000000000e+01 5.200000000000000000e+01
7.300000000000000000e+01 5.200000000000000000e+01
1.010000000000000000e+02 5.200000000000000000e+01
1.180000000000000000e+02 5.200000000000000000e+01
1.280000000000000000e+02 5.200000000000000000e+01
1.910000000000000000e+02 5.200000000000000000e+01
1.930000000000000000e+02 5.200000000000000000e+01
1.950000000000000000e+02 5.200000000000000000e+01
1.960000000000000000e+02 5.200000000000000000e+01
2.010000000000000000e+02 5.200000000000000000e+01
2.020000000000000000e+02 5.200000000000000000e+01
2.030000000000000000e+02 5.200000000000000000e+01
2.040000000000000000e+02 5.200000000000000000e+01
2.050000000000000000e+02 5.200000000000000000e+01
2.060000000000000000e+02 5.200000000000000000e+01
2.070000000000000000e+02 5.200000000000000000e+01
2.080000000000000000e+02 5.200000000000000000e+01
2.250000000000000000e+02 5.200000000000000000e+01
2.280000000000000000e+02 5.200000000000000000e+01
2.360000000000000000e+02 5.200000000000000000e+01
2.830000000000000000e+02 5.200000000000000000e+01
3.450000000000000000e+02 5.200000000000000000e+01
3.500000000000000000e+02 5.200000000000000000e+01
3.540000000000000000e+02 5.200000000000000000e+01
3.790000000000000000e+02 5.200000000000000000e+01
3.800000000000000000e+02 5.200000000000000000e+01
3.820000000000000000e+02 5.200000000000000000e+01
3.860000000000000000e+02 5.200000000000000000e+01
3.880000000000000000e+02 5.200000000000000000e+01
3.890000000000000000e+02 5.200000000000000000e+01
3.900000000000000000e+02 5.200000000000000000e+01
3.910000000000000000e+02 5.200000000000000000e+01
4.170000000000000000e+02 5.200000000000000000e+01
4.510000000000000000e+02 5.200000000000000000e+01
4.520000000000000000e+02 5.200000000000000000e+01
4.530000000000000000e+02 5.200000000000000000e+01
5.300000000000000000e+02 5.200000000000000000e+01
5.390000000000000000e+02 5.200000000000000000e+01
5.490000000000000000e+02 5.200000000000000000e+01
5.620000000000000000e+02 5.200000000000000000e+01
5.630000000000000000e+02 5.200000000000000000e+01
5.680000000000000000e+02 5.200000000000000000e+01
5.700000000000000000e+02 5.200000000000000000e+01
5.710000000000000000e+02 5.200000000000000000e+01
5.900000000000000000e+02 5.200000000000000000e+01
5.990000000000000000e+02 5.200000000000000000e+01
6.070000000000000000e+02 5.200000000000000000e+01
6.080000000000000000e+02 5.200000000000000000e+01
6.250000000000000000e+02 5.200000000000000000e+01
6.270000000000000000e+02 5.200000000000000000e+01
6.550000000000000000e+02 5.200000000000000000e+01
6.590000000000000000e+02 5.200000000000000000e+01
6.690000000000000000e+02 5.200000000000000000e+01
6.700000000000000000e+02 5.200000000000000000e+01
6.830000000000000000e+02 5.200000000000000000e+01
4.000000000000000000e+01 5.300000000000000000e+01
4.200000000000000000e+01 5.300000000000000000e+01
5.100000000000000000e+01 5.300000000000000000e+01
5.200000000000000000e+01 5.300000000000000000e+01
8.400000000000000000e+01 5.300000000000000000e+01
8.700000000000000000e+01 5.300000000000000000e+01
8.800000000000000000e+01 5.300000000000000000e+01
9.000000000000000000e+01 5.300000000000000000e+01
9.100000000000000000e+01 5.300000000000000000e+01
9.200000000000000000e+01 5.300000000000000000e+01
9.400000000000000000e+01 5.300000000000000000e+01
9.500000000000000000e+01 5.300000000000000000e+01
1.140000000000000000e+02 5.300000000000000000e+01
1.150000000000000000e+02 5.300000000000000000e+01
1.320000000000000000e+02 5.300000000000000000e+01
1.420000000000000000e+02 5.300000000000000000e+01
1.430000000000000000e+02 5.300000000000000000e+01
1.440000000000000000e+02 5.300000000000000000e+01
1.450000000000000000e+02 5.300000000000000000e+01
1.460000000000000000e+02 5.300000000000000000e+01
1.470000000000000000e+02 5.300000000000000000e+01
1.480000000000000000e+02 5.300000000000000000e+01
1.500000000000000000e+02 5.300000000000000000e+01
1.510000000000000000e+02 5.300000000000000000e+01
1.530000000000000000e+02 5.300000000000000000e+01
1.540000000000000000e+02 5.300000000000000000e+01
1.640000000000000000e+02 5.300000000000000000e+01
1.650000000000000000e+02 5.300000000000000000e+01
1.730000000000000000e+02 5.300000000000000000e+01
2.280000000000000000e+02 5.300000000000000000e+01
2.330000000000000000e+02 5.300000000000000000e+01
2.650000000000000000e+02 5.300000000000000000e+01
2.660000000000000000e+02 5.300000000000000000e+01
3.020000000000000000e+02 5.300000000000000000e+01
3.030000000000000000e+02 5.300000000000000000e+01
3.170000000000000000e+02 5.300000000000000000e+01
3.180000000000000000e+02 5.300000000000000000e+01
3.520000000000000000e+02 5.300000000000000000e+01
3.540000000000000000e+02 5.300000000000000000e+01
3.620000000000000000e+02 5.300000000000000000e+01
4.160000000000000000e+02 5.300000000000000000e+01
4.230000000000000000e+02 5.300000000000000000e+01
4.240000000000000000e+02 5.300000000000000000e+01
4.600000000000000000e+02 5.300000000000000000e+01
4.670000000000000000e+02 5.300000000000000000e+01
4.760000000000000000e+02 5.300000000000000000e+01
5.040000000000000000e+02 5.300000000000000000e+01
5.060000000000000000e+02 5.300000000000000000e+01
5.070000000000000000e+02 5.300000000000000000e+01
5.140000000000000000e+02 5.300000000000000000e+01
5.150000000000000000e+02 5.300000000000000000e+01
5.160000000000000000e+02 5.300000000000000000e+01
5.180000000000000000e+02 5.300000000000000000e+01
5.190000000000000000e+02 5.300000000000000000e+01
5.200000000000000000e+02 5.300000000000000000e+01
5.230000000000000000e+02 5.300000000000000000e+01
5.370000000000000000e+02 5.300000000000000000e+01
5.390000000000000000e+02 5.300000000000000000e+01
5.460000000000000000e+02 5.300000000000000000e+01
5.970000000000000000e+02 5.300000000000000000e+01
5.990000000000000000e+02 5.300000000000000000e+01
6.050000000000000000e+02 5.300000000000000000e+01
6.060000000000000000e+02 5.300000000000000000e+01
6.350000000000000000e+02 5.300000000000000000e+01
6.460000000000000000e+02 5.300000000000000000e+01
6.470000000000000000e+02 5.300000000000000000e+01
6.480000000000000000e+02 5.300000000000000000e+01
6.590000000000000000e+02 5.300000000000000000e+01
6.670000000000000000e+02 5.300000000000000000e+01
6.930000000000000000e+02 5.300000000000000000e+01
6.950000000000000000e+02 5.300000000000000000e+01
6.960000000000000000e+02 5.300000000000000000e+01
6.980000000000000000e+02 5.300000000000000000e+01
1.040000000000000000e+02 5.400000000000000000e+01
1.660000000000000000e+02 5.400000000000000000e+01
1.690000000000000000e+02 5.400000000000000000e+01
1.710000000000000000e+02 5.400000000000000000e+01
2.990000000000000000e+02 5.400000000000000000e+01
3.530000000000000000e+02 5.400000000000000000e+01
4.780000000000000000e+02 5.400000000000000000e+01
4.850000000000000000e+02 5.400000000000000000e+01
5.390000000000000000e+02 5.400000000000000000e+01
5.430000000000000000e+02 5.400000000000000000e+01
6.040000000000000000e+02 5.400000000000000000e+01
6.580000000000000000e+02 5.400000000000000000e+01
6.640000000000000000e+02 5.400000000000000000e+01
7.060000000000000000e+02 5.400000000000000000e+01
7.150000000000000000e+02 5.400000000000000000e+01
7.170000000000000000e+02 5.400000000000000000e+01
7.220000000000000000e+02 5.400000000000000000e+01
1.690000000000000000e+02 5.500000000000000000e+01
2.310000000000000000e+02 5.500000000000000000e+01
2.960000000000000000e+02 5.500000000000000000e+01
2.970000000000000000e+02 5.500000000000000000e+01
4.210000000000000000e+02 5.500000000000000000e+01
6.030000000000000000e+02 5.500000000000000000e+01
7.170000000000000000e+02 5.500000000000000000e+01
4.500000000000000000e+01 5.600000000000000000e+01
1.690000000000000000e+02 5.600000000000000000e+01
2.310000000000000000e+02 5.600000000000000000e+01
3.580000000000000000e+02 5.600000000000000000e+01
4.210000000000000000e+02 5.600000000000000000e+01
4.830000000000000000e+02 5.600000000000000000e+01
6.030000000000000000e+02 5.600000000000000000e+01
6.630000000000000000e+02 5.600000000000000000e+01
4.500000000000000000e+01 5.700000000000000000e+01
1.080000000000000000e+02 5.700000000000000000e+01
1.690000000000000000e+02 5.700000000000000000e+01
2.310000000000000000e+02 5.700000000000000000e+01
2.320000000000000000e+02 5.700000000000000000e+01
3.580000000000000000e+02 5.700000000000000000e+01
5.420000000000000000e+02 5.700000000000000000e+01
6.030000000000000000e+02 5.700000000000000000e+01
6.620000000000000000e+02 5.700000000000000000e+01
6.630000000000000000e+02 5.700000000000000000e+01
7.200000000000000000e+02 5.700000000000000000e+01
4.500000000000000000e+01 5.800000000000000000e+01
4.600000000000000000e+01 5.800000000000000000e+01
1.080000000000000000e+02 5.800000000000000000e+01
1.700000000000000000e+02 5.800000000000000000e+01
2.310000000000000000e+02 5.800000000000000000e+01
2.320000000000000000e+02 5.800000000000000000e+01
3.570000000000000000e+02 5.800000000000000000e+01
4.200000000000000000e+02 5.800000000000000000e+01
5.420000000000000000e+02 5.800000000000000000e+01
6.020000000000000000e+02 5.800000000000000000e+01
6.620000000000000000e+02 5.800000000000000000e+01
6.630000000000000000e+02 5.800000000000000000e+01
7.200000000000000000e+02 5.800000000000000000e+01
4.500000000000000000e+01 5.900000000000000000e+01
4.600000000000000000e+01 5.900000000000000000e+01
1.080000000000000000e+02 5.900000000000000000e+01
1.090000000000000000e+02 5.900000000000000000e+01
1.700000000000000000e+02 5.900000000000000000e+01
2.310000000000000000e+02 5.900000000000000000e+01
2.320000000000000000e+02 5.900000000000000000e+01
2.950000000000000000e+02 5.900000000000000000e+01
3.570000000000000000e+02 5.900000000000000000e+01
4.200000000000000000e+02 5.900000000000000000e+01
4.820000000000000000e+02 5.900000000000000000e+01
5.420000000000000000e+02 5.900000000000000000e+01
6.020000000000000000e+02 5.900000000000000000e+01
6.620000000000000000e+02 5.900000000000000000e+01
6.630000000000000000e+02 5.900000000000000000e+01
7.200000000000000000e+02 5.900000000000000000e+01
7.210000000000000000e+02 5.900000000000000000e+01
4.500000000000000000e+01 6.000000000000000000e+01
1.080000000000000000e+02 6.000000000000000000e+01
1.090000000000000000e+02 6.000000000000000000e+01
1.700000000000000000e+02 6.000000000000000000e+01
2.310000000000000000e+02 6.000000000000000000e+01
2.950000000000000000e+02 6.000000000000000000e+01
3.570000000000000000e+02 6.000000000000000000e+01
4.200000000000000000e+02 6.000000000000000000e+01
4.820000000000000000e+02 6.000000000000000000e+01
6.020000000000000000e+02 6.000000000000000000e+01
6.620000000000000000e+02 6.000000000000000000e+01
7.200000000000000000e+02 6.000000000000000000e+01
7.210000000000000000e+02 6.000000000000000000e+01
1.080000000000000000e+02 6.100000000000000000e+01
1.090000000000000000e+02 6.100000000000000000e+01
1.700000000000000000e+02 6.100000000000000000e+01
2.950000000000000000e+02 6.100000000000000000e+01
3.570000000000000000e+02 6.100000000000000000e+01
4.820000000000000000e+02 6.100000000000000000e+01
6.020000000000000000e+02 6.100000000000000000e+01
6.620000000000000000e+02 6.100000000000000000e+01
7.200000000000000000e+02 6.100000000000000000e+01
7.210000000000000000e+02 6.100000000000000000e+01
2.950000000000000000e+02 6.200000000000000000e+01
3.570000000000000000e+02 6.200000000000000000e+01
4.820000000000000000e+02 6.200000000000000000e+01
6.020000000000000000e+02 6.200000000000000000e+01
2.950000000000000000e+02 6.300000000000000000e+01
3.570000000000000000e+02 6.300000000000000000e+01
4.820000000000000000e+02 6.300000000000000000e+01
