1.780000000000000000e+02 8.300000000000000000e+01
1.790000000000000000e+02 8.300000000000000000e+01
1.870000000000000000e+02 8.300000000000000000e+01
1.880000000000000000e+02 8.300000000000000000e+01
1.890000000000000000e+02 8.300000000000000000e+01
1.900000000000000000e+02 8.300000000000000000e+01
1.920000000000000000e+02 8.300000000000000000e+01
1.930000000000000000e+02 8.300000000000000000e+01
1.940000000000000000e+02 8.300000000000000000e+01
1.950000000000000000e+02 8.300000000000000000e+01
1.960000000000000000e+02 8.300000000000000000e+01
1.970000000000000000e+02 8.300000000000000000e+01
1.780000000000000000e+02 8.400000000000000000e+01
1.790000000000000000e+02 8.400000000000000000e+01
1.870000000000000000e+02 8.400000000000000000e+01
1.880000000000000000e+02 8.400000000000000000e+01
1.890000000000000000e+02 8.400000000000000000e+01
1.900000000000000000e+02 8.400000000000000000e+01
1.920000000000000000e+02 8.400000000000000000e+01
1.930000000000000000e+02 8.400000000000000000e+01
1.940000000000000000e+02 8.400000000000000000e+01
1.950000000000000000e+02 8.400000000000000000e+01
1.960000000000000000e+02 8.400000000000000000e+01
1.970000000000000000e+02 8.400000000000000000e+01
1.790000000000000000e+02 8.500000000000000000e+01
1.800000000000000000e+02 8.500000000000000000e+01
1.860000000000000000e+02 8.500000000000000000e+01
1.870000000000000000e+02 8.500000000000000000e+01
1.890000000000000000e+02 8.500000000000000000e+01
1.900000000000000000e+02 8.500000000000000000e+01
1.920000000000000000e+02 8.500000000000000000e+01
1.930000000000000000e+02 8.500000000000000000e+01
1.790000000000000000e+02 8.600000000000000000e+01
1.800000000000000000e+02 8.600000000000000000e+01
1.860000000000000000e+02 8.600000000000000000e+01
1.870000000000000000e+02 8.600000000000000000e+01
1.890000000000000000e+02 8.600000000000000000e+01
1.900000000000000000e+02 8.600000000000000000e+01
1.910000000000000000e+02 8.600000000000000000e+01
1.920000000000000000e+02 8.600000000000000000e+01
1.790000000000000000e+02 8.700000000000000000e+01
1.800000000000000000e+02 8.700000000000000000e+01
1.860000000000000000e+02 8.700000000000000000e+01
1.870000000000000000e+02 8.700000000000000000e+01
1.890000000000000000e+02 8.700000000000000000e+01
1.900000000000000000e+02 8.700000000000000000e+01
1.910000000000000000e+02 8.700000000000000000e+01
1.920000000000000000e+02 8.700000000000000000e+01
1.940000000000000000e+02 8.700000000000000000e+01
1.950000000000000000e+02 8.700000000000000000e+01
1.960000000000000000e+02 8.700000000000000000e+01
3.700000000000000000e+01 8.800000000000000000e+01
3.800000000000000000e+01 8.800000000000000000e+01
3.900000000000000000e+01 8.800000000000000000e+01
4.000000000000000000e+01 8.800000000000000000e+01
1.250000000000000000e+02 8.800000000000000000e+01
1.260000000000000000e+02 8.800000000000000000e+01
1.270000000000000000e+02 8.800000000000000000e+01
1.280000000000000000e+02 8.800000000000000000e+01
1.800000000000000000e+02 8.800000000000000000e+01
1.810000000000000000e+02 8.800000000000000000e+01
1.850000000000000000e+02 8.800000000000000000e+01
1.860000000000000000e+02 8.800000000000000000e+01
1.890000000000000000e+02 8.800000000000000000e+01
1.900000000000000000e+02 8.800000000000000000e+01
1.910000000000000000e+02 8.800000000000000000e+01
1.920000000000000000e+02 8.800000000000000000e+01
1.930000000000000000e+02 8.800000000000000000e+01
1.940000000000000000e+02 8.800000000000000000e+01
1.950000000000000000e+02 8.800000000000000000e+01
1.960000000000000000e+02 8.800000000000000000e+01
1.970000000000000000e+02 8.800000000000000000e+01
3.700000000000000000e+01 8.900000000000000000e+01
4.000000000000000000e+01 8.900000000000000000e+01
4.100000000000000000e+01 8.900000000000000000e+01
1.250000000000000000e+02 8.900000000000000000e+01
1.280000000000000000e+02 8.900000000000000000e+01
1.800000000000000000e+02 8.900000000000000000e+01
1.810000000000000000e+02 8.900000000000000000e+01
1.850000000000000000e+02 8.900000000000000000e+01
1.860000000000000000e+02 8.900000000000000000e+01
1.890000000000000000e+02 8.900000000000000000e+01
1.900000000000000000e+02 8.900000000000000000e+01
1.910000000000000000e+02 8.900000000000000000e+01
1.920000000000000000e+02 8.900000000000000000e+01
1.970000000000000000e+02 8.900000000000000000e+01
1.980000000000000000e+02 8.900000000000000000e+01
3.600000000000000000e+01 9.000000000000000000e+01
3.700000000000000000e+01 9.000000000000000000e+01
4.100000000000000000e+01 9.000000000000000000e+01
1.240000000000000000e+02 9.000000000000000000e+01
1.250000000000000000e+02 9.000000000000000000e+01
1.280000000000000000e+02 9.000000000000000000e+01
1.290000000000000000e+02 9.000000000000000000e+01
1.800000000000000000e+02 9.000000000000000000e+01
1.810000000000000000e+02 9.000000000000000000e+01
1.850000000000000000e+02 9.000000000000000000e+01
1.860000000000000000e+02 9.000000000000000000e+01
1.890000000000000000e+02 9.000000000000000000e+01
1.900000000000000000e+02 9.000000000000000000e+01
1.970000000000000000e+02 9.000000000000000000e+01
1.980000000000000000e+02 9.000000000000000000e+01
3.500000000000000000e+01 9.100000000000000000e+01
3.600000000000000000e+01 9.100000000000000000e+01
4.100000000000000000e+01 9.100000000000000000e+01
1.230000000000000000e+02 9.100000000000000000e+01
1.240000000000000000e+02 9.100000000000000000e+01
1.290000000000000000e+02 9.100000000000000000e+01
1.300000000000000000e+02 9.100000000000000000e+01
1.810000000000000000e+02 9.100000000000000000e+01
1.820000000000000000e+02 9.100000000000000000e+01
1.840000000000000000e+02 9.100000000000000000e+01
1.850000000000000000e+02 9.100000000000000000e+01
1.890000000000000000e+02 9.100000000000000000e+01
1.900000000000000000e+02 9.100000000000000000e+01
1.970000000000000000e+02 9.100000000000000000e+01
1.980000000000000000e+02 9.100000000000000000e+01
3.500000000000000000e+01 9.200000000000000000e+01
4.100000000000000000e+01 9.200000000000000000e+01
4.200000000000000000e+01 9.200000000000000000e+01
1.230000000000000000e+02 9.200000000000000000e+01
1.300000000000000000e+02 9.200000000000000000e+01
1.810000000000000000e+02 9.200000000000000000e+01
1.820000000000000000e+02 9.200000000000000000e+01
1.840000000000000000e+02 9.200000000000000000e+01
1.850000000000000000e+02 9.200000000000000000e+01
1.890000000000000000e+02 9.200000000000000000e+01
1.900000000000000000e+02 9.200000000000000000e+01
1.910000000000000000e+02 9.200000000000000000e+01
1.920000000000000000e+02 9.200000000000000000e+01
1.970000000000000000e+02 9.200000000000000000e+01
1.980000000000000000e+02 9.200000000000000000e+01
3.400000000000000000e+01 9.300000000000000000e+01
3.500000000000000000e+01 9.300000000000000000e+01
4.200000000000000000e+01 9.300000000000000000e+01
1.230000000000000000e+02 9.300000000000000000e+01
1.300000000000000000e+02 9.300000000000000000e+01
1.810000000000000000e+02 9.300000000000000000e+01
1.820000000000000000e+02 9.300000000000000000e+01
1.840000000000000000e+02 9.300000000000000000e+01
1.850000000000000000e+02 9.300000000000000000e+01
1.890000000000000000e+02 9.300000000000000000e+01
1.900000000000000000e+02 9.300000000000000000e+01
1.910000000000000000e+02 9.300000000000000000e+01
1.920000000000000000e+02 9.300000000000000000e+01
1.970000000000000000e+02 9.300000000000000000e+01
1.980000000000000000e+02 9.300000000000000000e+01
3.400000000000000000e+01 9.400000000000000000e+01
4.200000000000000000e+01 9.400000000000000000e+01
4.300000000000000000e+01 9.400000000000000000e+01
1.220000000000000000e+02 9.400000000000000000e+01
1.230000000000000000e+02 9.400000000000000000e+01
1.300000000000000000e+02 9.400000000000000000e+01
1.310000000000000000e+02 9.400000000000000000e+01
1.820000000000000000e+02 9.400000000000000000e+01
1.830000000000000000e+02 9.400000000000000000e+01
1.840000000000000000e+02 9.400000000000000000e+01
1.890000000000000000e+02 9.400000000000000000e+01
1.900000000000000000e+02 9.400000000000000000e+01
1.920000000000000000e+02 9.400000000000000000e+01
1.930000000000000000e+02 9.400000000000000000e+01
1.940000000000000000e+02 9.400000000000000000e+01
1.950000000000000000e+02 9.400000000000000000e+01
1.960000000000000000e+02 9.400000000000000000e+01
1.970000000000000000e+02 9.400000000000000000e+01
3.300000000000000000e+01 9.500000000000000000e+01
3.400000000000000000e+01 9.500000000000000000e+01
4.300000000000000000e+01 9.500000000000000000e+01
1.210000000000000000e+02 9.500000000000000000e+01
1.220000000000000000e+02 9.500000000000000000e+01
1.300000000000000000e+02 9.500000000000000000e+01
1.310000000000000000e+02 9.500000000000000000e+01
1.820000000000000000e+02 9.500000000000000000e+01
1.830000000000000000e+02 9.500000000000000000e+01
1.840000000000000000e+02 9.500000000000000000e+01
1.880000000000000000e+02 9.500000000000000000e+01
1.890000000000000000e+02 9.500000000000000000e+01
1.900000000000000000e+02 9.500000000000000000e+01
1.930000000000000000e+02 9.500000000000000000e+01
1.940000000000000000e+02 9.500000000000000000e+01
1.950000000000000000e+02 9.500000000000000000e+01
1.960000000000000000e+02 9.500000000000000000e+01
3.300000000000000000e+01 9.600000000000000000e+01
4.300000000000000000e+01 9.600000000000000000e+01
1.210000000000000000e+02 9.600000000000000000e+01
1.220000000000000000e+02 9.600000000000000000e+01
1.310000000000000000e+02 9.600000000000000000e+01
1.880000000000000000e+02 9.600000000000000000e+01
1.900000000000000000e+02 9.600000000000000000e+01
3.200000000000000000e+01 9.700000000000000000e+01
3.300000000000000000e+01 9.700000000000000000e+01
4.300000000000000000e+01 9.700000000000000000e+01
4.400000000000000000e+01 9.700000000000000000e+01
1.200000000000000000e+02 9.700000000000000000e+01
1.210000000000000000e+02 9.700000000000000000e+01
1.310000000000000000e+02 9.700000000000000000e+01
1.880000000000000000e+02 9.700000000000000000e+01
1.900000000000000000e+02 9.700000000000000000e+01
3.200000000000000000e+01 9.800000000000000000e+01
4.400000000000000000e+01 9.800000000000000000e+01
1.190000000000000000e+02 9.800000000000000000e+01
1.200000000000000000e+02 9.800000000000000000e+01
1.310000000000000000e+02 9.800000000000000000e+01
1.320000000000000000e+02 9.800000000000000000e+01
1.880000000000000000e+02 9.800000000000000000e+01
1.900000000000000000e+02 9.800000000000000000e+01
