1.370000000000000000e+02 6.700000000000000000e+01
1.370000000000000000e+02 6.800000000000000000e+01
1.370000000000000000e+02 6.900000000000000000e+01
4.900000000000000000e+01 7.000000000000000000e+01
1.370000000000000000e+02 7.000000000000000000e+01
4.900000000000000000e+01 7.100000000000000000e+01
1.370000000000000000e+02 7.100000000000000000e+01
4.900000000000000000e+01 7.200000000000000000e+01
1.370000000000000000e+02 7.200000000000000000e+01
4.900000000000000000e+01 7.300000000000000000e+01
1.370000000000000000e+02 7.300000000000000000e+01
4.900000000000000000e+01 7.400000000000000000e+01
1.370000000000000000e+02 7.400000000000000000e+01
1.380000000000000000e+02 7.400000000000000000e+01
4.900000000000000000e+01 7.500000000000000000e+01
1.370000000000000000e+02 7.500000000000000000e+01
1.380000000000000000e+02 7.500000000000000000e+01
4.900000000000000000e+01 7.600000000000000000e+01
1.360000000000000000e+02 7.600000000000000000e+01
1.380000000000000000e+02 7.600000000000000000e+01
4.900000000000000000e+01 7.700000000000000000e+01
1.360000000000000000e+02 7.700000000000000000e+01
1.380000000000000000e+02 7.700000000000000000e+01
4.900000000000000000e+01 7.800000000000000000e+01
1.360000000000000000e+02 7.800000000000000000e+01
1.380000000000000000e+02 7.800000000000000000e+01
4.800000000000000000e+01 7.900000000000000000e+01
4.900000000000000000e+01 7.900000000000000000e+01
5.000000000000000000e+01 7.900000000000000000e+01
1.360000000000000000e+02 7.900000000000000000e+01
1.380000000000000000e+02 7.900000000000000000e+01
4.800000000000000000e+01 8.000000000000000000e+01
5.000000000000000000e+01 8.000000000000000000e+01
1.360000000000000000e+02 8.000000000000000000e+01
1.380000000000000000e+02 8.000000000000000000e+01
4.800000000000000000e+01 8.100000000000000000e+01
5.000000000000000000e+01 8.100000000000000000e+01
1.360000000000000000e+02 8.100000000000000000e+01
1.380000000000000000e+02 8.100000000000000000e+01
1.670000000000000000e+02 8.100000000000000000e+01
4.800000000000000000e+01 8.200000000000000000e+01
5.000000000000000000e+01 8.200000000000000000e+01
1.360000000000000000e+02 8.200000000000000000e+01
1.380000000000000000e+02 8.200000000000000000e+01
1.670000000000000000e+02 8.200000000000000000e+01
4.800000000000000000e+01 8.300000000000000000e+01
5.000000000000000000e+01 8.300000000000000000e+01
1.360000000000000000e+02 8.300000000000000000e+01
1.380000000000000000e+02 8.300000000000000000e+01
1.670000000000000000e+02 8.300000000000000000e+01
4.800000000000000000e+01 8.400000000000000000e+01
5.000000000000000000e+01 8.400000000000000000e+01
1.360000000000000000e+02 8.400000000000000000e+01
1.380000000000000000e+02 8.400000000000000000e+01
1.670000000000000000e+02 8.400000000000000000e+01
4.800000000000000000e+01 8.500000000000000000e+01
5.000000000000000000e+01 8.500000000000000000e+01
1.360000000000000000e+02 8.500000000000000000e+01
1.380000000000000000e+02 8.500000000000000000e+01
1.670000000000000000e+02 8.500000000000000000e+01
4.800000000000000000e+01 8.600000000000000000e+01
5.000000000000000000e+01 8.600000000000000000e+01
1.360000000000000000e+02 8.600000000000000000e+01
1.380000000000000000e+02 8.600000000000000000e+01
1.670000000000000000e+02 8.600000000000000000e+01
4.800000000000000000e+01 8.700000000000000000e+01
5.000000000000000000e+01 8.700000000000000000e+01
1.360000000000000000e+02 8.700000000000000000e+01
1.380000000000000000e+02 8.700000000000000000e+01
1.640000000000000000e+02 8.700000000000000000e+01
1.670000000000000000e+02 8.700000000000000000e+01
4.800000000000000000e+01 8.800000000000000000e+01
5.000000000000000000e+01 8.800000000000000000e+01
1.360000000000000000e+02 8.800000000000000000e+01
1.380000000000000000e+02 8.800000000000000000e+01
1.640000000000000000e+02 8.800000000000000000e+01
1.670000000000000000e+02 8.800000000000000000e+01
4.800000000000000000e+01 8.900000000000000000e+01
5.000000000000000000e+01 8.900000000000000000e+01
7.600000000000000000e+01 8.900000000000000000e+01
7.700000000000000000e+01 8.900000000000000000e+01
1.360000000000000000e+02 8.900000000000000000e+01
1.380000000000000000e+02 8.900000000000000000e+01
1.640000000000000000e+02 8.900000000000000000e+01
1.670000000000000000e+02 8.900000000000000000e+01
4.800000000000000000e+01 9.000000000000000000e+01
5.000000000000000000e+01 9.000000000000000000e+01
7.600000000000000000e+01 9.000000000000000000e+01
7.700000000000000000e+01 9.000000000000000000e+01
7.800000000000000000e+01 9.000000000000000000e+01
1.360000000000000000e+02 9.000000000000000000e+01
1.380000000000000000e+02 9.000000000000000000e+01
1.640000000000000000e+02 9.000000000000000000e+01
1.650000000000000000e+02 9.000000000000000000e+01
1.670000000000000000e+02 9.000000000000000000e+01
4.800000000000000000e+01 9.100000000000000000e+01
5.000000000000000000e+01 9.100000000000000000e+01
7.500000000000000000e+01 9.100000000000000000e+01
7.600000000000000000e+01 9.100000000000000000e+01
7.700000000000000000e+01 9.100000000000000000e+01
7.800000000000000000e+01 9.100000000000000000e+01
1.360000000000000000e+02 9.100000000000000000e+01
1.380000000000000000e+02 9.100000000000000000e+01
1.640000000000000000e+02 9.100000000000000000e+01
1.650000000000000000e+02 9.100000000000000000e+01
1.670000000000000000e+02 9.100000000000000000e+01
1.000000000000000000e+00 9.200000000000000000e+01
4.800000000000000000e+01 9.200000000000000000e+01
5.000000000000000000e+01 9.200000000000000000e+01
7.500000000000000000e+01 9.200000000000000000e+01
7.600000000000000000e+01 9.200000000000000000e+01
7.700000000000000000e+01 9.200000000000000000e+01
7.800000000000000000e+01 9.200000000000000000e+01
8.100000000000000000e+01 9.200000000000000000e+01
1.360000000000000000e+02 9.200000000000000000e+01
1.380000000000000000e+02 9.200000000000000000e+01
1.640000000000000000e+02 9.200000000000000000e+01
1.650000000000000000e+02 9.200000000000000000e+01
1.670000000000000000e+02 9.200000000000000000e+01
1.000000000000000000e+00 9.300000000000000000e+01
4.800000000000000000e+01 9.300000000000000000e+01
5.000000000000000000e+01 9.300000000000000000e+01
7.500000000000000000e+01 9.300000000000000000e+01
7.700000000000000000e+01 9.300000000000000000e+01
7.800000000000000000e+01 9.300000000000000000e+01
8.100000000000000000e+01 9.300000000000000000e+01
1.070000000000000000e+02 9.300000000000000000e+01
1.080000000000000000e+02 9.300000000000000000e+01
1.360000000000000000e+02 9.300000000000000000e+01
1.380000000000000000e+02 9.300000000000000000e+01
1.520000000000000000e+02 9.300000000000000000e+01
1.620000000000000000e+02 9.300000000000000000e+01
1.630000000000000000e+02 9.300000000000000000e+01
1.640000000000000000e+02 9.300000000000000000e+01
1.650000000000000000e+02 9.300000000000000000e+01
1.660000000000000000e+02 9.300000000000000000e+01
1.670000000000000000e+02 9.300000000000000000e+01
1.000000000000000000e+00 9.400000000000000000e+01
1.200000000000000000e+01 9.400000000000000000e+01
4.800000000000000000e+01 9.400000000000000000e+01
5.000000000000000000e+01 9.400000000000000000e+01
7.400000000000000000e+01 9.400000000000000000e+01
7.500000000000000000e+01 9.400000000000000000e+01
7.800000000000000000e+01 9.400000000000000000e+01
8.100000000000000000e+01 9.400000000000000000e+01
1.070000000000000000e+02 9.400000000000000000e+01
1.080000000000000000e+02 9.400000000000000000e+01
1.360000000000000000e+02 9.400000000000000000e+01
1.380000000000000000e+02 9.400000000000000000e+01
1.520000000000000000e+02 9.400000000000000000e+01
1.620000000000000000e+02 9.400000000000000000e+01
1.630000000000000000e+02 9.400000000000000000e+01
1.640000000000000000e+02 9.400000000000000000e+01
1.660000000000000000e+02 9.400000000000000000e+01
1.670000000000000000e+02 9.400000000000000000e+01
1.940000000000000000e+02 9.400000000000000000e+01
1.000000000000000000e+00 9.500000000000000000e+01
1.200000000000000000e+01 9.500000000000000000e+01
4.800000000000000000e+01 9.500000000000000000e+01
5.000000000000000000e+01 9.500000000000000000e+01
7.300000000000000000e+01 9.500000000000000000e+01
7.400000000000000000e+01 9.500000000000000000e+01
7.500000000000000000e+01 9.500000000000000000e+01
7.800000000000000000e+01 9.500000000000000000e+01
7.900000000000000000e+01 9.500000000000000000e+01
8.100000000000000000e+01 9.500000000000000000e+01
9.400000000000000000e+01 9.500000000000000000e+01
1.070000000000000000e+02 9.500000000000000000e+01
1.080000000000000000e+02 9.500000000000000000e+01
1.360000000000000000e+02 9.500000000000000000e+01
1.380000000000000000e+02 9.500000000000000000e+01
1.520000000000000000e+02 9.500000000000000000e+01
1.620000000000000000e+02 9.500000000000000000e+01
1.630000000000000000e+02 9.500000000000000000e+01
1.640000000000000000e+02 9.500000000000000000e+01
1.660000000000000000e+02 9.500000000000000000e+01
1.670000000000000000e+02 9.500000000000000000e+01
1.940000000000000000e+02 9.500000000000000000e+01
1.000000000000000000e+00 9.600000000000000000e+01
1.200000000000000000e+01 9.600000000000000000e+01
4.800000000000000000e+01 9.600000000000000000e+01
5.000000000000000000e+01 9.600000000000000000e+01
7.300000000000000000e+01 9.600000000000000000e+01
7.400000000000000000e+01 9.600000000000000000e+01
7.500000000000000000e+01 9.600000000000000000e+01
7.900000000000000000e+01 9.600000000000000000e+01
8.100000000000000000e+01 9.600000000000000000e+01
9.400000000000000000e+01 9.600000000000000000e+01
1.070000000000000000e+02 9.600000000000000000e+01
1.080000000000000000e+02 9.600000000000000000e+01
1.360000000000000000e+02 9.600000000000000000e+01
1.380000000000000000e+02 9.600000000000000000e+01
1.390000000000000000e+02 9.600000000000000000e+01
1.520000000000000000e+02 9.600000000000000000e+01
1.610000000000000000e+02 9.600000000000000000e+01
1.620000000000000000e+02 9.600000000000000000e+01
1.630000000000000000e+02 9.600000000000000000e+01
1.640000000000000000e+02 9.600000000000000000e+01
1.660000000000000000e+02 9.600000000000000000e+01
1.670000000000000000e+02 9.600000000000000000e+01
1.940000000000000000e+02 9.600000000000000000e+01
1.000000000000000000e+00 9.700000000000000000e+01
1.200000000000000000e+01 9.700000000000000000e+01
4.800000000000000000e+01 9.700000000000000000e+01
5.000000000000000000e+01 9.700000000000000000e+01
7.300000000000000000e+01 9.700000000000000000e+01
7.400000000000000000e+01 9.700000000000000000e+01
7.900000000000000000e+01 9.700000000000000000e+01
8.100000000000000000e+01 9.700000000000000000e+01
9.400000000000000000e+01 9.700000000000000000e+01
1.070000000000000000e+02 9.700000000000000000e+01
1.080000000000000000e+02 9.700000000000000000e+01
1.360000000000000000e+02 9.700000000000000000e+01
1.390000000000000000e+02 9.700000000000000000e+01
1.520000000000000000e+02 9.700000000000000000e+01
1.610000000000000000e+02 9.700000000000000000e+01
1.620000000000000000e+02 9.700000000000000000e+01
1.660000000000000000e+02 9.700000000000000000e+01
1.670000000000000000e+02 9.700000000000000000e+01
1.940000000000000000e+02 9.700000000000000000e+01
1.000000000000000000e+00 9.800000000000000000e+01
1.200000000000000000e+01 9.800000000000000000e+01
4.800000000000000000e+01 9.800000000000000000e+01
5.000000000000000000e+01 9.800000000000000000e+01
7.300000000000000000e+01 9.800000000000000000e+01
7.900000000000000000e+01 9.800000000000000000e+01
8.000000000000000000e+01 9.800000000000000000e+01
8.100000000000000000e+01 9.800000000000000000e+01
9.400000000000000000e+01 9.800000000000000000e+01
1.070000000000000000e+02 9.800000000000000000e+01
1.080000000000000000e+02 9.800000000000000000e+01
1.360000000000000000e+02 9.800000000000000000e+01
1.390000000000000000e+02 9.800000000000000000e+01
1.520000000000000000e+02 9.800000000000000000e+01
1.610000000000000000e+02 9.800000000000000000e+01
1.620000000000000000e+02 9.800000000000000000e+01
1.660000000000000000e+02 9.800000000000000000e+01
1.670000000000000000e+02 9.800000000000000000e+01
1.810000000000000000e+02 9.800000000000000000e+01
1.940000000000000000e+02 9.800000000000000000e+01
