1.700000000000000000e+01 2.500000000000000000e+01
1.800000000000000000e+01 2.500000000000000000e+01
1.900000000000000000e+01 2.500000000000000000e+01
2.000000000000000000e+01 2.500000000000000000e+01
2.100000000000000000e+01 2.500000000000000000e+01
2.200000000000000000e+01 2.500000000000000000e+01
2.300000000000000000e+01 2.500000000000000000e+01
2.400000000000000000e+01 2.500000000000000000e+01
2.500000000000000000e+01 2.500000000000000000e+01
2.600000000000000000e+01 2.500000000000000000e+01
2.700000000000000000e+01 2.500000000000000000e+01
2.800000000000000000e+01 2.500000000000000000e+01
2.900000000000000000e+01 2.500000000000000000e+01
3.000000000000000000e+01 2.500000000000000000e+01
3.100000000000000000e+01 2.500000000000000000e+01
1.700000000000000000e+01 2.600000000000000000e+01
3.100000000000000000e+01 2.600000000000000000e+01
1.700000000000000000e+01 2.700000000000000000e+01
3.100000000000000000e+01 2.700000000000000000e+01
1.700000000000000000e+01 2.800000000000000000e+01
3.100000000000000000e+01 2.800000000000000000e+01
1.700000000000000000e+01 2.900000000000000000e+01
3.100000000000000000e+01 2.900000000000000000e+01
2.460000000000000000e+02 2.900000000000000000e+01
1.700000000000000000e+01 3.000000000000000000e+01
3.100000000000000000e+01 3.000000000000000000e+01
1.280000000000000000e+02 3.000000000000000000e+01
1.870000000000000000e+02 3.000000000000000000e+01
2.460000000000000000e+02 3.000000000000000000e+01
3.610000000000000000e+02 3.000000000000000000e+01
4.170000000000000000e+02 3.000000000000000000e+01
5.870000000000000000e+02 3.000000000000000000e+01
1.700000000000000000e+01 3.100000000000000000e+01
3.100000000000000000e+01 3.100000000000000000e+01
1.280000000000000000e+02 3.100000000000000000e+01
1.870000000000000000e+02 3.100000000000000000e+01
2.460000000000000000e+02 3.100000000000000000e+01
3.610000000000000000e+02 3.100000000000000000e+01
4.170000000000000000e+02 3.100000000000000000e+01
4.740000000000000000e+02 3.100000000000000000e+01
5.870000000000000000e+02 3.100000000000000000e+01
6.450000000000000000e+02 3.100000000000000000e+01
1.700000000000000000e+01 3.200000000000000000e+01
3.100000000000000000e+01 3.200000000000000000e+01
6.900000000000000000e+01 3.200000000000000000e+01
1.280000000000000000e+02 3.200000000000000000e+01
1.870000000000000000e+02 3.200000000000000000e+01
2.460000000000000000e+02 3.200000000000000000e+01
3.610000000000000000e+02 3.200000000000000000e+01
4.170000000000000000e+02 3.200000000000000000e+01
4.740000000000000000e+02 3.200000000000000000e+01
5.870000000000000000e+02 3.200000000000000000e+01
6.450000000000000000e+02 3.200000000000000000e+01
1.700000000000000000e+01 3.300000000000000000e+01
3.100000000000000000e+01 3.300000000000000000e+01
6.900000000000000000e+01 3.300000000000000000e+01
1.280000000000000000e+02 3.300000000000000000e+01
1.870000000000000000e+02 3.300000000000000000e+01
2.460000000000000000e+02 3.300000000000000000e+01
3.040000000000000000e+02 3.300000000000000000e+01
3.610000000000000000e+02 3.300000000000000000e+01
4.170000000000000000e+02 3.300000000000000000e+01
4.740000000000000000e+02 3.300000000000000000e+01
5.870000000000000000e+02 3.300000000000000000e+01
6.450000000000000000e+02 3.300000000000000000e+01
1.700000000000000000e+01 3.400000000000000000e+01
3.100000000000000000e+01 3.400000000000000000e+01
6.900000000000000000e+01 3.400000000000000000e+01
1.280000000000000000e+02 3.400000000000000000e+01
1.870000000000000000e+02 3.400000000000000000e+01
2.460000000000000000e+02 3.400000000000000000e+01
3.040000000000000000e+02 3.400000000000000000e+01
3.610000000000000000e+02 3.400000000000000000e+01
4.170000000000000000e+02 3.400000000000000000e+01
4.740000000000000000e+02 3.400000000000000000e+01
5.300000000000000000e+02 3.400000000000000000e+01
5.870000000000000000e+02 3.400000000000000000e+01
6.450000000000000000e+02 3.400000000000000000e+01
7.020000000000000000e+02 3.400000000000000000e+01
7.030000000000000000e+02 3.400000000000000000e+01
1.700000000000000000e+01 3.500000000000000000e+01
3.100000000000000000e+01 3.500000000000000000e+01
6.900000000000000000e+01 3.500000000000000000e+01
1.280000000000000000e+02 3.500000000000000000e+01
1.870000000000000000e+02 3.500000000000000000e+01
3.040000000000000000e+02 3.500000000000000000e+01
3.610000000000000000e+02 3.500000000000000000e+01
4.170000000000000000e+02 3.500000000000000000e+01
4.740000000000000000e+02 3.500000000000000000e+01
5.300000000000000000e+02 3.500000000000000000e+01
5.870000000000000000e+02 3.500000000000000000e+01
6.450000000000000000e+02 3.500000000000000000e+01
7.020000000000000000e+02 3.500000000000000000e+01
7.030000000000000000e+02 3.500000000000000000e+01
1.700000000000000000e+01 3.600000000000000000e+01
3.100000000000000000e+01 3.600000000000000000e+01
6.900000000000000000e+01 3.600000000000000000e+01
1.280000000000000000e+02 3.600000000000000000e+01
3.050000000000000000e+02 3.600000000000000000e+01
4.170000000000000000e+02 3.600000000000000000e+01
4.740000000000000000e+02 3.600000000000000000e+01
5.300000000000000000e+02 3.600000000000000000e+01
5.870000000000000000e+02 3.600000000000000000e+01
6.440000000000000000e+02 3.600000000000000000e+01
7.020000000000000000e+02 3.600000000000000000e+01
7.030000000000000000e+02 3.600000000000000000e+01
1.700000000000000000e+01 3.700000000000000000e+01
3.100000000000000000e+01 3.700000000000000000e+01
3.900000000000000000e+01 3.700000000000000000e+01
4.200000000000000000e+01 3.700000000000000000e+01
3.050000000000000000e+02 3.700000000000000000e+01
5.310000000000000000e+02 3.700000000000000000e+01
6.440000000000000000e+02 3.700000000000000000e+01
7.030000000000000000e+02 3.700000000000000000e+01
1.700000000000000000e+01 3.800000000000000000e+01
3.100000000000000000e+01 3.800000000000000000e+01
3.900000000000000000e+01 3.800000000000000000e+01
3.050000000000000000e+02 3.800000000000000000e+01
5.310000000000000000e+02 3.800000000000000000e+01
6.440000000000000000e+02 3.800000000000000000e+01
7.030000000000000000e+02 3.800000000000000000e+01
1.700000000000000000e+01 3.900000000000000000e+01
3.100000000000000000e+01 3.900000000000000000e+01
3.900000000000000000e+01 3.900000000000000000e+01
7.000000000000000000e+01 3.900000000000000000e+01
3.050000000000000000e+02 3.900000000000000000e+01
5.310000000000000000e+02 3.900000000000000000e+01
6.440000000000000000e+02 3.900000000000000000e+01
7.030000000000000000e+02 3.900000000000000000e+01
1.700000000000000000e+01 4.000000000000000000e+01
3.100000000000000000e+01 4.000000000000000000e+01
3.900000000000000000e+01 4.000000000000000000e+01
7.000000000000000000e+01 4.000000000000000000e+01
3.050000000000000000e+02 4.000000000000000000e+01
5.310000000000000000e+02 4.000000000000000000e+01
1.700000000000000000e+01 4.100000000000000000e+01
3.100000000000000000e+01 4.100000000000000000e+01
3.900000000000000000e+01 4.100000000000000000e+01
7.000000000000000000e+01 4.100000000000000000e+01
3.050000000000000000e+02 4.100000000000000000e+01
3.620000000000000000e+02 4.100000000000000000e+01
4.160000000000000000e+02 4.100000000000000000e+01
5.310000000000000000e+02 4.100000000000000000e+01
5.860000000000000000e+02 4.100000000000000000e+01
1.700000000000000000e+01 4.200000000000000000e+01
3.100000000000000000e+01 4.200000000000000000e+01
3.900000000000000000e+01 4.200000000000000000e+01
7.000000000000000000e+01 4.200000000000000000e+01
1.290000000000000000e+02 4.200000000000000000e+01
1.860000000000000000e+02 4.200000000000000000e+01
2.470000000000000000e+02 4.200000000000000000e+01
3.620000000000000000e+02 4.200000000000000000e+01
4.160000000000000000e+02 4.200000000000000000e+01
5.310000000000000000e+02 4.200000000000000000e+01
5.860000000000000000e+02 4.200000000000000000e+01
1.700000000000000000e+01 4.300000000000000000e+01
3.100000000000000000e+01 4.300000000000000000e+01
3.900000000000000000e+01 4.300000000000000000e+01
7.000000000000000000e+01 4.300000000000000000e+01
1.290000000000000000e+02 4.300000000000000000e+01
1.860000000000000000e+02 4.300000000000000000e+01
2.470000000000000000e+02 4.300000000000000000e+01
3.620000000000000000e+02 4.300000000000000000e+01
4.160000000000000000e+02 4.300000000000000000e+01
5.860000000000000000e+02 4.300000000000000000e+01
1.700000000000000000e+01 4.400000000000000000e+01
3.100000000000000000e+01 4.400000000000000000e+01
3.900000000000000000e+01 4.400000000000000000e+01
7.000000000000000000e+01 4.400000000000000000e+01
1.290000000000000000e+02 4.400000000000000000e+01
1.860000000000000000e+02 4.400000000000000000e+01
2.470000000000000000e+02 4.400000000000000000e+01
3.620000000000000000e+02 4.400000000000000000e+01
4.160000000000000000e+02 4.400000000000000000e+01
4.750000000000000000e+02 4.400000000000000000e+01
5.860000000000000000e+02 4.400000000000000000e+01
1.700000000000000000e+01 4.500000000000000000e+01
3.100000000000000000e+01 4.500000000000000000e+01
3.900000000000000000e+01 4.500000000000000000e+01
1.290000000000000000e+02 4.500000000000000000e+01
1.440000000000000000e+02 4.500000000000000000e+01
1.860000000000000000e+02 4.500000000000000000e+01
2.450000000000000000e+02 4.500000000000000000e+01
2.470000000000000000e+02 4.500000000000000000e+01
2.610000000000000000e+02 4.500000000000000000e+01
3.210000000000000000e+02 4.500000000000000000e+01
3.620000000000000000e+02 4.500000000000000000e+01
4.160000000000000000e+02 4.500000000000000000e+01
4.320000000000000000e+02 4.500000000000000000e+01
4.330000000000000000e+02 4.500000000000000000e+01
4.730000000000000000e+02 4.500000000000000000e+01
4.750000000000000000e+02 4.500000000000000000e+01
4.910000000000000000e+02 4.500000000000000000e+01
5.450000000000000000e+02 4.500000000000000000e+01
5.470000000000000000e+02 4.500000000000000000e+01
5.860000000000000000e+02 4.500000000000000000e+01
6.030000000000000000e+02 4.500000000000000000e+01
6.600000000000000000e+02 4.500000000000000000e+01
1.700000000000000000e+01 4.600000000000000000e+01
3.100000000000000000e+01 4.600000000000000000e+01
1.270000000000000000e+02 4.600000000000000000e+01
1.290000000000000000e+02 4.600000000000000000e+01
1.860000000000000000e+02 4.600000000000000000e+01
2.450000000000000000e+02 4.600000000000000000e+01
2.470000000000000000e+02 4.600000000000000000e+01
2.640000000000000000e+02 4.600000000000000000e+01
3.190000000000000000e+02 4.600000000000000000e+01
3.620000000000000000e+02 4.600000000000000000e+01
3.780000000000000000e+02 4.600000000000000000e+01
4.310000000000000000e+02 4.600000000000000000e+01
4.730000000000000000e+02 4.600000000000000000e+01
4.750000000000000000e+02 4.600000000000000000e+01
5.860000000000000000e+02 4.600000000000000000e+01
6.010000000000000000e+02 4.600000000000000000e+01
6.620000000000000000e+02 4.600000000000000000e+01
7.190000000000000000e+02 4.600000000000000000e+01
1.700000000000000000e+01 4.700000000000000000e+01
3.100000000000000000e+01 4.700000000000000000e+01
8.300000000000000000e+01 4.700000000000000000e+01
8.700000000000000000e+01 4.700000000000000000e+01
1.270000000000000000e+02 4.700000000000000000e+01
1.290000000000000000e+02 4.700000000000000000e+01
1.460000000000000000e+02 4.700000000000000000e+01
2.450000000000000000e+02 4.700000000000000000e+01
2.470000000000000000e+02 4.700000000000000000e+01
2.590000000000000000e+02 4.700000000000000000e+01
3.600000000000000000e+02 4.700000000000000000e+01
3.750000000000000000e+02 4.700000000000000000e+01
4.730000000000000000e+02 4.700000000000000000e+01
4.750000000000000000e+02 4.700000000000000000e+01
6.580000000000000000e+02 4.700000000000000000e+01
1.700000000000000000e+01 4.800000000000000000e+01
3.100000000000000000e+01 4.800000000000000000e+01
8.200000000000000000e+01 4.800000000000000000e+01
1.270000000000000000e+02 4.800000000000000000e+01
1.290000000000000000e+02 4.800000000000000000e+01
1.880000000000000000e+02 4.800000000000000000e+01
2.450000000000000000e+02 4.800000000000000000e+01
2.650000000000000000e+02 4.800000000000000000e+01
3.170000000000000000e+02 4.800000000000000000e+01
3.600000000000000000e+02 4.800000000000000000e+01
3.740000000000000000e+02 4.800000000000000000e+01
4.180000000000000000e+02 4.800000000000000000e+01
4.350000000000000000e+02 4.800000000000000000e+01
4.730000000000000000e+02 4.800000000000000000e+01
4.750000000000000000e+02 4.800000000000000000e+01
5.430000000000000000e+02 4.800000000000000000e+01
5.880000000000000000e+02 4.800000000000000000e+01
6.630000000000000000e+02 4.800000000000000000e+01
1.700000000000000000e+01 4.900000000000000000e+01
3.100000000000000000e+01 4.900000000000000000e+01
6.800000000000000000e+01 4.900000000000000000e+01
1.270000000000000000e+02 4.900000000000000000e+01
1.470000000000000000e+02 4.900000000000000000e+01
1.880000000000000000e+02 4.900000000000000000e+01
2.450000000000000000e+02 4.900000000000000000e+01
3.600000000000000000e+02 4.900000000000000000e+01
4.180000000000000000e+02 4.900000000000000000e+01
4.290000000000000000e+02 4.900000000000000000e+01
4.730000000000000000e+02 4.900000000000000000e+01
4.750000000000000000e+02 4.900000000000000000e+01
5.880000000000000000e+02 4.900000000000000000e+01
5.990000000000000000e+02 4.900000000000000000e+01
7.210000000000000000e+02 4.900000000000000000e+01
1.700000000000000000e+01 5.000000000000000000e+01
3.100000000000000000e+01 5.000000000000000000e+01
5.900000000000000000e+01 5.000000000000000000e+01
6.800000000000000000e+01 5.000000000000000000e+01
1.270000000000000000e+02 5.000000000000000000e+01
1.880000000000000000e+02 5.000000000000000000e+01
2.450000000000000000e+02 5.000000000000000000e+01
2.570000000000000000e+02 5.000000000000000000e+01
2.660000000000000000e+02 5.000000000000000000e+01
3.160000000000000000e+02 5.000000000000000000e+01
3.600000000000000000e+02 5.000000000000000000e+01
3.730000000000000000e+02 5.000000000000000000e+01
4.180000000000000000e+02 5.000000000000000000e+01
4.360000000000000000e+02 5.000000000000000000e+01
4.730000000000000000e+02 5.000000000000000000e+01
5.880000000000000000e+02 5.000000000000000000e+01
1.700000000000000000e+01 5.100000000000000000e+01
3.100000000000000000e+01 5.100000000000000000e+01
5.800000000000000000e+01 5.100000000000000000e+01
6.800000000000000000e+01 5.100000000000000000e+01
8.000000000000000000e+01 5.100000000000000000e+01
8.900000000000000000e+01 5.100000000000000000e+01
1.270000000000000000e+02 5.100000000000000000e+01
1.760000000000000000e+02 5.100000000000000000e+01
1.880000000000000000e+02 5.100000000000000000e+01
2.350000000000000000e+02 5.100000000000000000e+01
2.560000000000000000e+02 5.100000000000000000e+01
2.930000000000000000e+02 5.100000000000000000e+01
2.940000000000000000e+02 5.100000000000000000e+01
3.150000000000000000e+02 5.100000000000000000e+01
3.240000000000000000e+02 5.100000000000000000e+01
3.500000000000000000e+02 5.100000000000000000e+01
3.510000000000000000e+02 5.100000000000000000e+01
3.600000000000000000e+02 5.100000000000000000e+01
3.720000000000000000e+02 5.100000000000000000e+01
4.060000000000000000e+02 5.100000000000000000e+01
4.070000000000000000e+02 5.100000000000000000e+01
4.180000000000000000e+02 5.100000000000000000e+01
4.270000000000000000e+02 5.100000000000000000e+01
4.630000000000000000e+02 5.100000000000000000e+01
4.730000000000000000e+02 5.100000000000000000e+01
4.940000000000000000e+02 5.100000000000000000e+01
5.200000000000000000e+02 5.100000000000000000e+01
5.290000000000000000e+02 5.100000000000000000e+01
5.410000000000000000e+02 5.100000000000000000e+01
5.500000000000000000e+02 5.100000000000000000e+01
5.760000000000000000e+02 5.100000000000000000e+01
5.880000000000000000e+02 5.100000000000000000e+01
6.070000000000000000e+02 5.100000000000000000e+01
6.340000000000000000e+02 5.100000000000000000e+01
6.550000000000000000e+02 5.100000000000000000e+01
6.920000000000000000e+02 5.100000000000000000e+01
1.700000000000000000e+01 5.200000000000000000e+01
3.100000000000000000e+01 5.200000000000000000e+01
6.800000000000000000e+01 5.200000000000000000e+01
1.770000000000000000e+02 5.200000000000000000e+01
1.880000000000000000e+02 5.200000000000000000e+01
2.340000000000000000e+02 5.200000000000000000e+01
2.530000000000000000e+02 5.200000000000000000e+01
2.540000000000000000e+02 5.200000000000000000e+01
2.950000000000000000e+02 5.200000000000000000e+01
3.030000000000000000e+02 5.200000000000000000e+01
3.250000000000000000e+02 5.200000000000000000e+01
3.490000000000000000e+02 5.200000000000000000e+01
3.600000000000000000e+02 5.200000000000000000e+01
3.710000000000000000e+02 5.200000000000000000e+01
4.040000000000000000e+02 5.200000000000000000e+01
4.180000000000000000e+02 5.200000000000000000e+01
4.260000000000000000e+02 5.200000000000000000e+01
4.370000000000000000e+02 5.200000000000000000e+01
4.650000000000000000e+02 5.200000000000000000e+01
5.290000000000000000e+02 5.200000000000000000e+01
5.400000000000000000e+02 5.200000000000000000e+01
5.740000000000000000e+02 5.200000000000000000e+01
5.770000000000000000e+02 5.200000000000000000e+01
5.880000000000000000e+02 5.200000000000000000e+01
5.960000000000000000e+02 5.200000000000000000e+01
1.400000000000000000e+01 5.300000000000000000e+01
1.500000000000000000e+01 5.300000000000000000e+01
1.600000000000000000e+01 5.300000000000000000e+01
1.700000000000000000e+01 5.300000000000000000e+01
3.100000000000000000e+01 5.300000000000000000e+01
3.200000000000000000e+01 5.300000000000000000e+01
3.300000000000000000e+01 5.300000000000000000e+01
3.400000000000000000e+01 5.300000000000000000e+01
4.000000000000000000e+01 5.300000000000000000e+01
4.200000000000000000e+01 5.300000000000000000e+01
4.300000000000000000e+01 5.300000000000000000e+01
6.800000000000000000e+01 5.300000000000000000e+01
7.600000000000000000e+01 5.300000000000000000e+01
1.190000000000000000e+02 5.300000000000000000e+01
1.200000000000000000e+02 5.300000000000000000e+01
1.500000000000000000e+02 5.300000000000000000e+01
1.570000000000000000e+02 5.300000000000000000e+01
1.780000000000000000e+02 5.300000000000000000e+01
1.880000000000000000e+02 5.300000000000000000e+01
1.950000000000000000e+02 5.300000000000000000e+01
2.380000000000000000e+02 5.300000000000000000e+01
2.490000000000000000e+02 5.300000000000000000e+01
2.690000000000000000e+02 5.300000000000000000e+01
2.720000000000000000e+02 5.300000000000000000e+01
2.960000000000000000e+02 5.300000000000000000e+01
3.030000000000000000e+02 5.300000000000000000e+01
3.110000000000000000e+02 5.300000000000000000e+01
3.120000000000000000e+02 5.300000000000000000e+01
3.260000000000000000e+02 5.300000000000000000e+01
3.270000000000000000e+02 5.300000000000000000e+01
3.330000000000000000e+02 5.300000000000000000e+01
3.480000000000000000e+02 5.300000000000000000e+01
3.520000000000000000e+02 5.300000000000000000e+01
3.530000000000000000e+02 5.300000000000000000e+01
3.680000000000000000e+02 5.300000000000000000e+01
3.690000000000000000e+02 5.300000000000000000e+01
3.910000000000000000e+02 5.300000000000000000e+01
4.180000000000000000e+02 5.300000000000000000e+01
4.660000000000000000e+02 5.300000000000000000e+01
4.770000000000000000e+02 5.300000000000000000e+01
4.790000000000000000e+02 5.300000000000000000e+01
4.970000000000000000e+02 5.300000000000000000e+01
5.010000000000000000e+02 5.300000000000000000e+01
5.210000000000000000e+02 5.300000000000000000e+01
5.290000000000000000e+02 5.300000000000000000e+01
5.370000000000000000e+02 5.300000000000000000e+01
5.780000000000000000e+02 5.300000000000000000e+01
5.880000000000000000e+02 5.300000000000000000e+01
5.940000000000000000e+02 5.300000000000000000e+01
6.310000000000000000e+02 5.300000000000000000e+01
6.350000000000000000e+02 5.300000000000000000e+01
6.360000000000000000e+02 5.300000000000000000e+01
6.670000000000000000e+02 5.300000000000000000e+01
6.930000000000000000e+02 5.300000000000000000e+01
7.010000000000000000e+02 5.300000000000000000e+01
3.700000000000000000e+01 5.400000000000000000e+01
3.800000000000000000e+01 5.400000000000000000e+01
4.600000000000000000e+01 5.400000000000000000e+01
5.000000000000000000e+01 5.400000000000000000e+01
5.200000000000000000e+01 5.400000000000000000e+01
5.300000000000000000e+01 5.400000000000000000e+01
5.400000000000000000e+01 5.400000000000000000e+01
7.200000000000000000e+01 5.400000000000000000e+01
9.300000000000000000e+01 5.400000000000000000e+01
9.400000000000000000e+01 5.400000000000000000e+01
9.500000000000000000e+01 5.400000000000000000e+01
9.600000000000000000e+01 5.400000000000000000e+01
1.020000000000000000e+02 5.400000000000000000e+01
1.030000000000000000e+02 5.400000000000000000e+01
1.040000000000000000e+02 5.400000000000000000e+01
1.050000000000000000e+02 5.400000000000000000e+01
1.140000000000000000e+02 5.400000000000000000e+01
1.310000000000000000e+02 5.400000000000000000e+01
1.620000000000000000e+02 5.400000000000000000e+01
1.630000000000000000e+02 5.400000000000000000e+01
1.640000000000000000e+02 5.400000000000000000e+01
1.660000000000000000e+02 5.400000000000000000e+01
1.670000000000000000e+02 5.400000000000000000e+01
1.790000000000000000e+02 5.400000000000000000e+01
1.920000000000000000e+02 5.400000000000000000e+01
2.100000000000000000e+02 5.400000000000000000e+01
2.120000000000000000e+02 5.400000000000000000e+01
2.870000000000000000e+02 5.400000000000000000e+01
2.880000000000000000e+02 5.400000000000000000e+01
2.890000000000000000e+02 5.400000000000000000e+01
2.900000000000000000e+02 5.400000000000000000e+01
3.030000000000000000e+02 5.400000000000000000e+01
3.400000000000000000e+02 5.400000000000000000e+01
3.410000000000000000e+02 5.400000000000000000e+01
3.420000000000000000e+02 5.400000000000000000e+01
3.430000000000000000e+02 5.400000000000000000e+01
3.470000000000000000e+02 5.400000000000000000e+01
3.640000000000000000e+02 5.400000000000000000e+01
3.650000000000000000e+02 5.400000000000000000e+01
3.850000000000000000e+02 5.400000000000000000e+01
3.860000000000000000e+02 5.400000000000000000e+01
3.870000000000000000e+02 5.400000000000000000e+01
3.880000000000000000e+02 5.400000000000000000e+01
3.960000000000000000e+02 5.400000000000000000e+01
3.970000000000000000e+02 5.400000000000000000e+01
3.980000000000000000e+02 5.400000000000000000e+01
4.200000000000000000e+02 5.400000000000000000e+01
4.420000000000000000e+02 5.400000000000000000e+01
4.510000000000000000e+02 5.400000000000000000e+01
4.520000000000000000e+02 5.400000000000000000e+01
5.020000000000000000e+02 5.400000000000000000e+01
5.290000000000000000e+02 5.400000000000000000e+01
5.540000000000000000e+02 5.400000000000000000e+01
5.550000000000000000e+02 5.400000000000000000e+01
5.640000000000000000e+02 5.400000000000000000e+01
5.650000000000000000e+02 5.400000000000000000e+01
5.660000000000000000e+02 5.400000000000000000e+01
5.670000000000000000e+02 5.400000000000000000e+01
5.680000000000000000e+02 5.400000000000000000e+01
5.710000000000000000e+02 5.400000000000000000e+01
5.790000000000000000e+02 5.400000000000000000e+01
6.100000000000000000e+02 5.400000000000000000e+01
6.110000000000000000e+02 5.400000000000000000e+01
6.120000000000000000e+02 5.400000000000000000e+01
6.810000000000000000e+02 5.400000000000000000e+01
6.820000000000000000e+02 5.400000000000000000e+01
6.840000000000000000e+02 5.400000000000000000e+01
7.010000000000000000e+02 5.400000000000000000e+01
7.060000000000000000e+02 5.400000000000000000e+01
7.070000000000000000e+02 5.400000000000000000e+01
7.270000000000000000e+02 5.400000000000000000e+01
7.280000000000000000e+02 5.400000000000000000e+01
6.300000000000000000e+01 5.500000000000000000e+01
2.210000000000000000e+02 5.500000000000000000e+01
2.220000000000000000e+02 5.500000000000000000e+01
2.230000000000000000e+02 5.500000000000000000e+01
2.240000000000000000e+02 5.500000000000000000e+01
2.310000000000000000e+02 5.500000000000000000e+01
2.420000000000000000e+02 5.500000000000000000e+01
2.970000000000000000e+02 5.500000000000000000e+01
3.070000000000000000e+02 5.500000000000000000e+01
5.150000000000000000e+02 5.500000000000000000e+01
5.160000000000000000e+02 5.500000000000000000e+01
5.330000000000000000e+02 5.500000000000000000e+01
5.800000000000000000e+02 5.500000000000000000e+01
6.370000000000000000e+02 5.500000000000000000e+01
6.430000000000000000e+02 5.500000000000000000e+01
6.460000000000000000e+02 5.500000000000000000e+01
6.950000000000000000e+02 5.500000000000000000e+01
7.010000000000000000e+02 5.500000000000000000e+01
7.100000000000000000e+01 5.600000000000000000e+01
1.250000000000000000e+02 5.600000000000000000e+01
1.300000000000000000e+02 5.600000000000000000e+01
1.830000000000000000e+02 5.600000000000000000e+01
1.890000000000000000e+02 5.600000000000000000e+01
2.430000000000000000e+02 5.600000000000000000e+01
2.480000000000000000e+02 5.600000000000000000e+01
3.010000000000000000e+02 5.600000000000000000e+01
3.060000000000000000e+02 5.600000000000000000e+01
3.560000000000000000e+02 5.600000000000000000e+01
3.630000000000000000e+02 5.600000000000000000e+01
4.700000000000000000e+02 5.600000000000000000e+01
4.710000000000000000e+02 5.600000000000000000e+01
4.760000000000000000e+02 5.600000000000000000e+01
5.260000000000000000e+02 5.600000000000000000e+01
5.270000000000000000e+02 5.600000000000000000e+01
5.320000000000000000e+02 5.600000000000000000e+01
5.850000000000000000e+02 5.600000000000000000e+01
5.890000000000000000e+02 5.600000000000000000e+01
6.430000000000000000e+02 5.600000000000000000e+01
6.460000000000000000e+02 5.600000000000000000e+01
6.470000000000000000e+02 5.600000000000000000e+01
6.970000000000000000e+02 5.600000000000000000e+01
7.050000000000000000e+02 5.600000000000000000e+01
6.700000000000000000e+01 5.700000000000000000e+01
7.100000000000000000e+01 5.700000000000000000e+01
1.300000000000000000e+02 5.700000000000000000e+01
1.840000000000000000e+02 5.700000000000000000e+01
1.890000000000000000e+02 5.700000000000000000e+01
2.480000000000000000e+02 5.700000000000000000e+01
3.020000000000000000e+02 5.700000000000000000e+01
3.060000000000000000e+02 5.700000000000000000e+01
3.580000000000000000e+02 5.700000000000000000e+01
3.630000000000000000e+02 5.700000000000000000e+01
4.140000000000000000e+02 5.700000000000000000e+01
4.190000000000000000e+02 5.700000000000000000e+01
4.760000000000000000e+02 5.700000000000000000e+01
5.280000000000000000e+02 5.700000000000000000e+01
5.320000000000000000e+02 5.700000000000000000e+01
5.840000000000000000e+02 5.700000000000000000e+01
5.890000000000000000e+02 5.700000000000000000e+01
6.420000000000000000e+02 5.700000000000000000e+01
6.460000000000000000e+02 5.700000000000000000e+01
6.470000000000000000e+02 5.700000000000000000e+01
7.000000000000000000e+02 5.700000000000000000e+01
7.100000000000000000e+01 5.800000000000000000e+01
1.300000000000000000e+02 5.800000000000000000e+01
1.890000000000000000e+02 5.800000000000000000e+01
2.480000000000000000e+02 5.800000000000000000e+01
3.060000000000000000e+02 5.800000000000000000e+01
3.630000000000000000e+02 5.800000000000000000e+01
4.190000000000000000e+02 5.800000000000000000e+01
4.760000000000000000e+02 5.800000000000000000e+01
5.320000000000000000e+02 5.800000000000000000e+01
5.890000000000000000e+02 5.800000000000000000e+01
6.460000000000000000e+02 5.800000000000000000e+01
7.040000000000000000e+02 5.800000000000000000e+01
7.100000000000000000e+01 5.900000000000000000e+01
1.300000000000000000e+02 5.900000000000000000e+01
1.890000000000000000e+02 5.900000000000000000e+01
2.480000000000000000e+02 5.900000000000000000e+01
3.060000000000000000e+02 5.900000000000000000e+01
3.630000000000000000e+02 5.900000000000000000e+01
4.190000000000000000e+02 5.900000000000000000e+01
4.760000000000000000e+02 5.900000000000000000e+01
5.320000000000000000e+02 5.900000000000000000e+01
5.890000000000000000e+02 5.900000000000000000e+01
7.040000000000000000e+02 5.900000000000000000e+01
5.320000000000000000e+02 6.000000000000000000e+01
