1.600000000000000000e+01 2.500000000000000000e+01
1.700000000000000000e+01 2.500000000000000000e+01
1.800000000000000000e+01 2.500000000000000000e+01
1.900000000000000000e+01 2.500000000000000000e+01
2.000000000000000000e+01 2.500000000000000000e+01
2.100000000000000000e+01 2.500000000000000000e+01
2.200000000000000000e+01 2.500000000000000000e+01
2.300000000000000000e+01 2.500000000000000000e+01
2.400000000000000000e+01 2.500000000000000000e+01
2.500000000000000000e+01 2.500000000000000000e+01
2.600000000000000000e+01 2.500000000000000000e+01
2.700000000000000000e+01 2.500000000000000000e+01
2.800000000000000000e+01 2.500000000000000000e+01
2.900000000000000000e+01 2.500000000000000000e+01
3.000000000000000000e+01 2.500000000000000000e+01
1.600000000000000000e+01 2.600000000000000000e+01
3.000000000000000000e+01 2.600000000000000000e+01
1.600000000000000000e+01 2.700000000000000000e+01
3.000000000000000000e+01 2.700000000000000000e+01
1.600000000000000000e+01 2.800000000000000000e+01
3.000000000000000000e+01 2.800000000000000000e+01
1.600000000000000000e+01 2.900000000000000000e+01
3.000000000000000000e+01 2.900000000000000000e+01
1.600000000000000000e+01 3.000000000000000000e+01
3.000000000000000000e+01 3.000000000000000000e+01
1.600000000000000000e+01 3.100000000000000000e+01
3.000000000000000000e+01 3.100000000000000000e+01
1.600000000000000000e+01 3.200000000000000000e+01
3.000000000000000000e+01 3.200000000000000000e+01
1.600000000000000000e+01 3.300000000000000000e+01
3.000000000000000000e+01 3.300000000000000000e+01
1.600000000000000000e+01 3.400000000000000000e+01
3.000000000000000000e+01 3.400000000000000000e+01
1.600000000000000000e+01 3.500000000000000000e+01
3.000000000000000000e+01 3.500000000000000000e+01
1.600000000000000000e+01 3.600000000000000000e+01
3.000000000000000000e+01 3.600000000000000000e+01
1.600000000000000000e+01 3.700000000000000000e+01
3.000000000000000000e+01 3.700000000000000000e+01
3.800000000000000000e+01 3.700000000000000000e+01
8.600000000000000000e+01 3.700000000000000000e+01
1.350000000000000000e+02 3.700000000000000000e+01
2.320000000000000000e+02 3.700000000000000000e+01
5.320000000000000000e+02 3.700000000000000000e+01
1.600000000000000000e+01 3.800000000000000000e+01
3.000000000000000000e+01 3.800000000000000000e+01
3.800000000000000000e+01 3.800000000000000000e+01
8.600000000000000000e+01 3.800000000000000000e+01
1.350000000000000000e+02 3.800000000000000000e+01
2.320000000000000000e+02 3.800000000000000000e+01
5.320000000000000000e+02 3.800000000000000000e+01
1.600000000000000000e+01 3.900000000000000000e+01
3.000000000000000000e+01 3.900000000000000000e+01
3.800000000000000000e+01 3.900000000000000000e+01
8.600000000000000000e+01 3.900000000000000000e+01
1.350000000000000000e+02 3.900000000000000000e+01
2.320000000000000000e+02 3.900000000000000000e+01
5.320000000000000000e+02 3.900000000000000000e+01
6.810000000000000000e+02 3.900000000000000000e+01
1.600000000000000000e+01 4.000000000000000000e+01
3.000000000000000000e+01 4.000000000000000000e+01
3.800000000000000000e+01 4.000000000000000000e+01
8.600000000000000000e+01 4.000000000000000000e+01
1.350000000000000000e+02 4.000000000000000000e+01
2.320000000000000000e+02 4.000000000000000000e+01
5.320000000000000000e+02 4.000000000000000000e+01
6.810000000000000000e+02 4.000000000000000000e+01
1.600000000000000000e+01 4.100000000000000000e+01
3.000000000000000000e+01 4.100000000000000000e+01
3.800000000000000000e+01 4.100000000000000000e+01
8.600000000000000000e+01 4.100000000000000000e+01
1.350000000000000000e+02 4.100000000000000000e+01
2.320000000000000000e+02 4.100000000000000000e+01
5.320000000000000000e+02 4.100000000000000000e+01
6.810000000000000000e+02 4.100000000000000000e+01
1.600000000000000000e+01 4.200000000000000000e+01
3.000000000000000000e+01 4.200000000000000000e+01
3.800000000000000000e+01 4.200000000000000000e+01
8.600000000000000000e+01 4.200000000000000000e+01
1.350000000000000000e+02 4.200000000000000000e+01
2.320000000000000000e+02 4.200000000000000000e+01
4.320000000000000000e+02 4.200000000000000000e+01
5.320000000000000000e+02 4.200000000000000000e+01
6.810000000000000000e+02 4.200000000000000000e+01
1.600000000000000000e+01 4.300000000000000000e+01
3.000000000000000000e+01 4.300000000000000000e+01
3.800000000000000000e+01 4.300000000000000000e+01
8.600000000000000000e+01 4.300000000000000000e+01
1.350000000000000000e+02 4.300000000000000000e+01
2.320000000000000000e+02 4.300000000000000000e+01
3.320000000000000000e+02 4.300000000000000000e+01
4.320000000000000000e+02 4.300000000000000000e+01
5.320000000000000000e+02 4.300000000000000000e+01
5.810000000000000000e+02 4.300000000000000000e+01
6.810000000000000000e+02 4.300000000000000000e+01
1.600000000000000000e+01 4.400000000000000000e+01
3.000000000000000000e+01 4.400000000000000000e+01
3.800000000000000000e+01 4.400000000000000000e+01
8.600000000000000000e+01 4.400000000000000000e+01
1.350000000000000000e+02 4.400000000000000000e+01
1.840000000000000000e+02 4.400000000000000000e+01
2.320000000000000000e+02 4.400000000000000000e+01
2.820000000000000000e+02 4.400000000000000000e+01
3.320000000000000000e+02 4.400000000000000000e+01
4.320000000000000000e+02 4.400000000000000000e+01
4.810000000000000000e+02 4.400000000000000000e+01
4.820000000000000000e+02 4.400000000000000000e+01
5.320000000000000000e+02 4.400000000000000000e+01
5.810000000000000000e+02 4.400000000000000000e+01
6.300000000000000000e+02 4.400000000000000000e+01
6.800000000000000000e+02 4.400000000000000000e+01
6.810000000000000000e+02 4.400000000000000000e+01
1.600000000000000000e+01 4.500000000000000000e+01
3.000000000000000000e+01 4.500000000000000000e+01
3.800000000000000000e+01 4.500000000000000000e+01
4.100000000000000000e+01 4.500000000000000000e+01
8.600000000000000000e+01 4.500000000000000000e+01
1.340000000000000000e+02 4.500000000000000000e+01
1.830000000000000000e+02 4.500000000000000000e+01
1.840000000000000000e+02 4.500000000000000000e+01
2.810000000000000000e+02 4.500000000000000000e+01
2.820000000000000000e+02 4.500000000000000000e+01
3.320000000000000000e+02 4.500000000000000000e+01
4.310000000000000000e+02 4.500000000000000000e+01
4.320000000000000000e+02 4.500000000000000000e+01
4.810000000000000000e+02 4.500000000000000000e+01
4.820000000000000000e+02 4.500000000000000000e+01
5.320000000000000000e+02 4.500000000000000000e+01
5.810000000000000000e+02 4.500000000000000000e+01
6.470000000000000000e+02 4.500000000000000000e+01
6.480000000000000000e+02 4.500000000000000000e+01
6.800000000000000000e+02 4.500000000000000000e+01
6.810000000000000000e+02 4.500000000000000000e+01
1.600000000000000000e+01 4.600000000000000000e+01
3.000000000000000000e+01 4.600000000000000000e+01
3.700000000000000000e+01 4.600000000000000000e+01
8.600000000000000000e+01 4.600000000000000000e+01
1.340000000000000000e+02 4.600000000000000000e+01
1.840000000000000000e+02 4.600000000000000000e+01
2.820000000000000000e+02 4.600000000000000000e+01
3.320000000000000000e+02 4.600000000000000000e+01
3.500000000000000000e+02 4.600000000000000000e+01
3.820000000000000000e+02 4.600000000000000000e+01
3.990000000000000000e+02 4.600000000000000000e+01
4.320000000000000000e+02 4.600000000000000000e+01
4.490000000000000000e+02 4.600000000000000000e+01
4.820000000000000000e+02 4.600000000000000000e+01
4.980000000000000000e+02 4.600000000000000000e+01
5.310000000000000000e+02 4.600000000000000000e+01
5.480000000000000000e+02 4.600000000000000000e+01
5.490000000000000000e+02 4.600000000000000000e+01
5.800000000000000000e+02 4.600000000000000000e+01
5.810000000000000000e+02 4.600000000000000000e+01
6.310000000000000000e+02 4.600000000000000000e+01
6.460000000000000000e+02 4.600000000000000000e+01
6.810000000000000000e+02 4.600000000000000000e+01
6.980000000000000000e+02 4.600000000000000000e+01
1.600000000000000000e+01 4.700000000000000000e+01
3.000000000000000000e+01 4.700000000000000000e+01
5.600000000000000000e+01 4.700000000000000000e+01
1.030000000000000000e+02 4.700000000000000000e+01
1.040000000000000000e+02 4.700000000000000000e+01
1.840000000000000000e+02 4.700000000000000000e+01
1.990000000000000000e+02 4.700000000000000000e+01
2.480000000000000000e+02 4.700000000000000000e+01
2.820000000000000000e+02 4.700000000000000000e+01
2.980000000000000000e+02 4.700000000000000000e+01
2.990000000000000000e+02 4.700000000000000000e+01
3.310000000000000000e+02 4.700000000000000000e+01
3.320000000000000000e+02 4.700000000000000000e+01
3.820000000000000000e+02 4.700000000000000000e+01
4.320000000000000000e+02 4.700000000000000000e+01
4.470000000000000000e+02 4.700000000000000000e+01
4.500000000000000000e+02 4.700000000000000000e+01
4.820000000000000000e+02 4.700000000000000000e+01
4.970000000000000000e+02 4.700000000000000000e+01
5.310000000000000000e+02 4.700000000000000000e+01
5.500000000000000000e+02 4.700000000000000000e+01
5.800000000000000000e+02 4.700000000000000000e+01
5.810000000000000000e+02 4.700000000000000000e+01
5.980000000000000000e+02 4.700000000000000000e+01
6.310000000000000000e+02 4.700000000000000000e+01
6.450000000000000000e+02 4.700000000000000000e+01
6.990000000000000000e+02 4.700000000000000000e+01
1.600000000000000000e+01 4.800000000000000000e+01
3.000000000000000000e+01 4.800000000000000000e+01
5.300000000000000000e+01 4.800000000000000000e+01
1.540000000000000000e+02 4.800000000000000000e+01
1.840000000000000000e+02 4.800000000000000000e+01
1.980000000000000000e+02 4.800000000000000000e+01
2.310000000000000000e+02 4.800000000000000000e+01
2.470000000000000000e+02 4.800000000000000000e+01
2.510000000000000000e+02 4.800000000000000000e+01
2.820000000000000000e+02 4.800000000000000000e+01
2.970000000000000000e+02 4.800000000000000000e+01
3.000000000000000000e+02 4.800000000000000000e+01
3.320000000000000000e+02 4.800000000000000000e+01
3.820000000000000000e+02 4.800000000000000000e+01
4.320000000000000000e+02 4.800000000000000000e+01
4.460000000000000000e+02 4.800000000000000000e+01
4.820000000000000000e+02 4.800000000000000000e+01
5.010000000000000000e+02 4.800000000000000000e+01
5.460000000000000000e+02 4.800000000000000000e+01
5.810000000000000000e+02 4.800000000000000000e+01
5.960000000000000000e+02 4.800000000000000000e+01
5.970000000000000000e+02 4.800000000000000000e+01
5.980000000000000000e+02 4.800000000000000000e+01
5.990000000000000000e+02 4.800000000000000000e+01
6.310000000000000000e+02 4.800000000000000000e+01
1.600000000000000000e+01 4.900000000000000000e+01
3.000000000000000000e+01 4.900000000000000000e+01
1.490000000000000000e+02 4.900000000000000000e+01
1.840000000000000000e+02 4.900000000000000000e+01
2.020000000000000000e+02 4.900000000000000000e+01
2.960000000000000000e+02 4.900000000000000000e+01
3.720000000000000000e+02 4.900000000000000000e+01
4.820000000000000000e+02 4.900000000000000000e+01
5.810000000000000000e+02 4.900000000000000000e+01
6.000000000000000000e+02 4.900000000000000000e+01
6.310000000000000000e+02 4.900000000000000000e+01
6.440000000000000000e+02 4.900000000000000000e+01
6.710000000000000000e+02 4.900000000000000000e+01
6.720000000000000000e+02 4.900000000000000000e+01
1.600000000000000000e+01 5.000000000000000000e+01
3.000000000000000000e+01 5.000000000000000000e+01
5.100000000000000000e+01 5.000000000000000000e+01
5.800000000000000000e+01 5.000000000000000000e+01
7.700000000000000000e+01 5.000000000000000000e+01
1.060000000000000000e+02 5.000000000000000000e+01
1.740000000000000000e+02 5.000000000000000000e+01
1.750000000000000000e+02 5.000000000000000000e+01
2.450000000000000000e+02 5.000000000000000000e+01
3.220000000000000000e+02 5.000000000000000000e+01
3.730000000000000000e+02 5.000000000000000000e+01
3.740000000000000000e+02 5.000000000000000000e+01
3.800000000000000000e+02 5.000000000000000000e+01
3.950000000000000000e+02 5.000000000000000000e+01
4.300000000000000000e+02 5.000000000000000000e+01
4.450000000000000000e+02 5.000000000000000000e+01
4.720000000000000000e+02 5.000000000000000000e+01
4.730000000000000000e+02 5.000000000000000000e+01
4.800000000000000000e+02 5.000000000000000000e+01
5.230000000000000000e+02 5.000000000000000000e+01
5.720000000000000000e+02 5.000000000000000000e+01
5.730000000000000000e+02 5.000000000000000000e+01
6.290000000000000000e+02 5.000000000000000000e+01
6.310000000000000000e+02 5.000000000000000000e+01
6.430000000000000000e+02 5.000000000000000000e+01
1.600000000000000000e+01 5.100000000000000000e+01
3.000000000000000000e+01 5.100000000000000000e+01
7.600000000000000000e+01 5.100000000000000000e+01
1.240000000000000000e+02 5.100000000000000000e+01
1.760000000000000000e+02 5.100000000000000000e+01
1.820000000000000000e+02 5.100000000000000000e+01
2.710000000000000000e+02 5.100000000000000000e+01
2.800000000000000000e+02 5.100000000000000000e+01
2.940000000000000000e+02 5.100000000000000000e+01
3.220000000000000000e+02 5.100000000000000000e+01
3.800000000000000000e+02 5.100000000000000000e+01
4.210000000000000000e+02 5.100000000000000000e+01
4.240000000000000000e+02 5.100000000000000000e+01
4.300000000000000000e+02 5.100000000000000000e+01
4.520000000000000000e+02 5.100000000000000000e+01
4.710000000000000000e+02 5.100000000000000000e+01
4.800000000000000000e+02 5.100000000000000000e+01
4.940000000000000000e+02 5.100000000000000000e+01
5.240000000000000000e+02 5.100000000000000000e+01
5.440000000000000000e+02 5.100000000000000000e+01
5.790000000000000000e+02 5.100000000000000000e+01
5.940000000000000000e+02 5.100000000000000000e+01
6.290000000000000000e+02 5.100000000000000000e+01
6.520000000000000000e+02 5.100000000000000000e+01
6.700000000000000000e+02 5.100000000000000000e+01
6.730000000000000000e+02 5.100000000000000000e+01
6.790000000000000000e+02 5.100000000000000000e+01
7.210000000000000000e+02 5.100000000000000000e+01
1.600000000000000000e+01 5.200000000000000000e+01
3.000000000000000000e+01 5.200000000000000000e+01
4.900000000000000000e+01 5.200000000000000000e+01
7.500000000000000000e+01 5.200000000000000000e+01
7.900000000000000000e+01 5.200000000000000000e+01
1.330000000000000000e+02 5.200000000000000000e+01
1.460000000000000000e+02 5.200000000000000000e+01
1.720000000000000000e+02 5.200000000000000000e+01
1.820000000000000000e+02 5.200000000000000000e+01
2.210000000000000000e+02 5.200000000000000000e+01
2.250000000000000000e+02 5.200000000000000000e+01
2.330000000000000000e+02 5.200000000000000000e+01
2.440000000000000000e+02 5.200000000000000000e+01
2.540000000000000000e+02 5.200000000000000000e+01
2.620000000000000000e+02 5.200000000000000000e+01
2.700000000000000000e+02 5.200000000000000000e+01
2.800000000000000000e+02 5.200000000000000000e+01
3.300000000000000000e+02 5.200000000000000000e+01
3.430000000000000000e+02 5.200000000000000000e+01
3.540000000000000000e+02 5.200000000000000000e+01
3.550000000000000000e+02 5.200000000000000000e+01
3.580000000000000000e+02 5.200000000000000000e+01
3.590000000000000000e+02 5.200000000000000000e+01
3.630000000000000000e+02 5.200000000000000000e+01
3.680000000000000000e+02 5.200000000000000000e+01
3.700000000000000000e+02 5.200000000000000000e+01
4.030000000000000000e+02 5.200000000000000000e+01
4.200000000000000000e+02 5.200000000000000000e+01
4.300000000000000000e+02 5.200000000000000000e+01
4.430000000000000000e+02 5.200000000000000000e+01
4.530000000000000000e+02 5.200000000000000000e+01
4.740000000000000000e+02 5.200000000000000000e+01
4.800000000000000000e+02 5.200000000000000000e+01
5.110000000000000000e+02 5.200000000000000000e+01
5.300000000000000000e+02 5.200000000000000000e+01
5.420000000000000000e+02 5.200000000000000000e+01
5.600000000000000000e+02 5.200000000000000000e+01
5.790000000000000000e+02 5.200000000000000000e+01
5.930000000000000000e+02 5.200000000000000000e+01
6.410000000000000000e+02 5.200000000000000000e+01
6.530000000000000000e+02 5.200000000000000000e+01
6.540000000000000000e+02 5.200000000000000000e+01
6.570000000000000000e+02 5.200000000000000000e+01
6.580000000000000000e+02 5.200000000000000000e+01
6.590000000000000000e+02 5.200000000000000000e+01
6.600000000000000000e+02 5.200000000000000000e+01
6.610000000000000000e+02 5.200000000000000000e+01
6.790000000000000000e+02 5.200000000000000000e+01
6.920000000000000000e+02 5.200000000000000000e+01
6.930000000000000000e+02 5.200000000000000000e+01
7.100000000000000000e+02 5.200000000000000000e+01
1.300000000000000000e+01 5.300000000000000000e+01
1.400000000000000000e+01 5.300000000000000000e+01
1.500000000000000000e+01 5.300000000000000000e+01
1.600000000000000000e+01 5.300000000000000000e+01
3.000000000000000000e+01 5.300000000000000000e+01
3.100000000000000000e+01 5.300000000000000000e+01
3.200000000000000000e+01 5.300000000000000000e+01
3.300000000000000000e+01 5.300000000000000000e+01
6.100000000000000000e+01 5.300000000000000000e+01
6.300000000000000000e+01 5.300000000000000000e+01
6.400000000000000000e+01 5.300000000000000000e+01
6.600000000000000000e+01 5.300000000000000000e+01
6.700000000000000000e+01 5.300000000000000000e+01
6.800000000000000000e+01 5.300000000000000000e+01
6.900000000000000000e+01 5.300000000000000000e+01
7.000000000000000000e+01 5.300000000000000000e+01
7.100000000000000000e+01 5.300000000000000000e+01
7.400000000000000000e+01 5.300000000000000000e+01
1.120000000000000000e+02 5.300000000000000000e+01
1.160000000000000000e+02 5.300000000000000000e+01
1.180000000000000000e+02 5.300000000000000000e+01
1.190000000000000000e+02 5.300000000000000000e+01
1.330000000000000000e+02 5.300000000000000000e+01
1.440000000000000000e+02 5.300000000000000000e+01
1.450000000000000000e+02 5.300000000000000000e+01
1.580000000000000000e+02 5.300000000000000000e+01
1.590000000000000000e+02 5.300000000000000000e+01
1.600000000000000000e+02 5.300000000000000000e+01
1.610000000000000000e+02 5.300000000000000000e+01
1.620000000000000000e+02 5.300000000000000000e+01
1.630000000000000000e+02 5.300000000000000000e+01
1.640000000000000000e+02 5.300000000000000000e+01
1.660000000000000000e+02 5.300000000000000000e+01
1.670000000000000000e+02 5.300000000000000000e+01
1.690000000000000000e+02 5.300000000000000000e+01
2.050000000000000000e+02 5.300000000000000000e+01
2.060000000000000000e+02 5.300000000000000000e+01
2.090000000000000000e+02 5.300000000000000000e+01
2.100000000000000000e+02 5.300000000000000000e+01
2.110000000000000000e+02 5.300000000000000000e+01
2.120000000000000000e+02 5.300000000000000000e+01
2.140000000000000000e+02 5.300000000000000000e+01
2.160000000000000000e+02 5.300000000000000000e+01
2.330000000000000000e+02 5.300000000000000000e+01
2.410000000000000000e+02 5.300000000000000000e+01
2.570000000000000000e+02 5.300000000000000000e+01
2.590000000000000000e+02 5.300000000000000000e+01
2.600000000000000000e+02 5.300000000000000000e+01
2.610000000000000000e+02 5.300000000000000000e+01
2.630000000000000000e+02 5.300000000000000000e+01
2.650000000000000000e+02 5.300000000000000000e+01
2.660000000000000000e+02 5.300000000000000000e+01
2.750000000000000000e+02 5.300000000000000000e+01
3.040000000000000000e+02 5.300000000000000000e+01
3.300000000000000000e+02 5.300000000000000000e+01
3.420000000000000000e+02 5.300000000000000000e+01
3.570000000000000000e+02 5.300000000000000000e+01
3.660000000000000000e+02 5.300000000000000000e+01
3.670000000000000000e+02 5.300000000000000000e+01
3.680000000000000000e+02 5.300000000000000000e+01
3.920000000000000000e+02 5.300000000000000000e+01
4.070000000000000000e+02 5.300000000000000000e+01
4.080000000000000000e+02 5.300000000000000000e+01
4.090000000000000000e+02 5.300000000000000000e+01
4.100000000000000000e+02 5.300000000000000000e+01
4.120000000000000000e+02 5.300000000000000000e+01
4.140000000000000000e+02 5.300000000000000000e+01
4.250000000000000000e+02 5.300000000000000000e+01
4.410000000000000000e+02 5.300000000000000000e+01
4.600000000000000000e+02 5.300000000000000000e+01
4.650000000000000000e+02 5.300000000000000000e+01
4.910000000000000000e+02 5.300000000000000000e+01
4.920000000000000000e+02 5.300000000000000000e+01
5.050000000000000000e+02 5.300000000000000000e+01
5.060000000000000000e+02 5.300000000000000000e+01
5.070000000000000000e+02 5.300000000000000000e+01
5.080000000000000000e+02 5.300000000000000000e+01
5.090000000000000000e+02 5.300000000000000000e+01
5.100000000000000000e+02 5.300000000000000000e+01
5.120000000000000000e+02 5.300000000000000000e+01
5.130000000000000000e+02 5.300000000000000000e+01
5.150000000000000000e+02 5.300000000000000000e+01
5.180000000000000000e+02 5.300000000000000000e+01
5.300000000000000000e+02 5.300000000000000000e+01
5.410000000000000000e+02 5.300000000000000000e+01
5.560000000000000000e+02 5.300000000000000000e+01
5.570000000000000000e+02 5.300000000000000000e+01
5.580000000000000000e+02 5.300000000000000000e+01
5.610000000000000000e+02 5.300000000000000000e+01
5.620000000000000000e+02 5.300000000000000000e+01
5.790000000000000000e+02 5.300000000000000000e+01
5.920000000000000000e+02 5.300000000000000000e+01
6.020000000000000000e+02 5.300000000000000000e+01
6.100000000000000000e+02 5.300000000000000000e+01
6.110000000000000000e+02 5.300000000000000000e+01
6.120000000000000000e+02 5.300000000000000000e+01
6.190000000000000000e+02 5.300000000000000000e+01
6.390000000000000000e+02 5.300000000000000000e+01
6.670000000000000000e+02 5.300000000000000000e+01
6.740000000000000000e+02 5.300000000000000000e+01
6.790000000000000000e+02 5.300000000000000000e+01
7.070000000000000000e+02 5.300000000000000000e+01
7.090000000000000000e+02 5.300000000000000000e+01
7.110000000000000000e+02 5.300000000000000000e+01
7.120000000000000000e+02 5.300000000000000000e+01
7.130000000000000000e+02 5.300000000000000000e+01
3.600000000000000000e+01 5.400000000000000000e+01
3.900000000000000000e+01 5.400000000000000000e+01
4.400000000000000000e+01 5.400000000000000000e+01
4.600000000000000000e+01 5.400000000000000000e+01
6.200000000000000000e+01 5.400000000000000000e+01
9.300000000000000000e+01 5.400000000000000000e+01
9.400000000000000000e+01 5.400000000000000000e+01
1.100000000000000000e+02 5.400000000000000000e+01
1.290000000000000000e+02 5.400000000000000000e+01
1.400000000000000000e+02 5.400000000000000000e+01
1.410000000000000000e+02 5.400000000000000000e+01
1.420000000000000000e+02 5.400000000000000000e+01
1.700000000000000000e+02 5.400000000000000000e+01
2.080000000000000000e+02 5.400000000000000000e+01
2.330000000000000000e+02 5.400000000000000000e+01
2.370000000000000000e+02 5.400000000000000000e+01
2.400000000000000000e+02 5.400000000000000000e+01
2.890000000000000000e+02 5.400000000000000000e+01
2.900000000000000000e+02 5.400000000000000000e+01
2.910000000000000000e+02 5.400000000000000000e+01
3.050000000000000000e+02 5.400000000000000000e+01
3.070000000000000000e+02 5.400000000000000000e+01
3.090000000000000000e+02 5.400000000000000000e+01
3.100000000000000000e+02 5.400000000000000000e+01
3.110000000000000000e+02 5.400000000000000000e+01
3.120000000000000000e+02 5.400000000000000000e+01
3.150000000000000000e+02 5.400000000000000000e+01
3.190000000000000000e+02 5.400000000000000000e+01
3.200000000000000000e+02 5.400000000000000000e+01
3.400000000000000000e+02 5.400000000000000000e+01
3.760000000000000000e+02 5.400000000000000000e+01
3.880000000000000000e+02 5.400000000000000000e+01
4.050000000000000000e+02 5.400000000000000000e+01
4.080000000000000000e+02 5.400000000000000000e+01
4.390000000000000000e+02 5.400000000000000000e+01
4.560000000000000000e+02 5.400000000000000000e+01
4.570000000000000000e+02 5.400000000000000000e+01
4.670000000000000000e+02 5.400000000000000000e+01
4.680000000000000000e+02 5.400000000000000000e+01
4.690000000000000000e+02 5.400000000000000000e+01
4.880000000000000000e+02 5.400000000000000000e+01
4.890000000000000000e+02 5.400000000000000000e+01
4.900000000000000000e+02 5.400000000000000000e+01
5.300000000000000000e+02 5.400000000000000000e+01
5.380000000000000000e+02 5.400000000000000000e+01
5.390000000000000000e+02 5.400000000000000000e+01
5.400000000000000000e+02 5.400000000000000000e+01
5.890000000000000000e+02 5.400000000000000000e+01
5.910000000000000000e+02 5.400000000000000000e+01
6.040000000000000000e+02 5.400000000000000000e+01
6.050000000000000000e+02 5.400000000000000000e+01
6.060000000000000000e+02 5.400000000000000000e+01
6.080000000000000000e+02 5.400000000000000000e+01
6.120000000000000000e+02 5.400000000000000000e+01
6.130000000000000000e+02 5.400000000000000000e+01
6.150000000000000000e+02 5.400000000000000000e+01
6.160000000000000000e+02 5.400000000000000000e+01
6.170000000000000000e+02 5.400000000000000000e+01
6.180000000000000000e+02 5.400000000000000000e+01
6.890000000000000000e+02 5.400000000000000000e+01
6.900000000000000000e+02 5.400000000000000000e+01
7.150000000000000000e+02 5.400000000000000000e+01
7.160000000000000000e+02 5.400000000000000000e+01
7.170000000000000000e+02 5.400000000000000000e+01
7.180000000000000000e+02 5.400000000000000000e+01
7.250000000000000000e+02 5.400000000000000000e+01
7.260000000000000000e+02 5.400000000000000000e+01
3.300000000000000000e+01 5.500000000000000000e+01
3.400000000000000000e+01 5.500000000000000000e+01
3.500000000000000000e+01 5.500000000000000000e+01
3.600000000000000000e+01 5.500000000000000000e+01
3.900000000000000000e+01 5.500000000000000000e+01
4.200000000000000000e+01 5.500000000000000000e+01
8.400000000000000000e+01 5.500000000000000000e+01
8.700000000000000000e+01 5.500000000000000000e+01
8.900000000000000000e+01 5.500000000000000000e+01
9.000000000000000000e+01 5.500000000000000000e+01
9.200000000000000000e+01 5.500000000000000000e+01
1.300000000000000000e+02 5.500000000000000000e+01
1.310000000000000000e+02 5.500000000000000000e+01
1.320000000000000000e+02 5.500000000000000000e+01
1.360000000000000000e+02 5.500000000000000000e+01
1.370000000000000000e+02 5.500000000000000000e+01
1.380000000000000000e+02 5.500000000000000000e+01
1.390000000000000000e+02 5.500000000000000000e+01
1.900000000000000000e+02 5.500000000000000000e+01
1.920000000000000000e+02 5.500000000000000000e+01
2.270000000000000000e+02 5.500000000000000000e+01
2.350000000000000000e+02 5.500000000000000000e+01
2.360000000000000000e+02 5.500000000000000000e+01
2.760000000000000000e+02 5.500000000000000000e+01
2.770000000000000000e+02 5.500000000000000000e+01
2.870000000000000000e+02 5.500000000000000000e+01
2.880000000000000000e+02 5.500000000000000000e+01
2.890000000000000000e+02 5.500000000000000000e+01
2.900000000000000000e+02 5.500000000000000000e+01
3.160000000000000000e+02 5.500000000000000000e+01
3.170000000000000000e+02 5.500000000000000000e+01
3.180000000000000000e+02 5.500000000000000000e+01
3.340000000000000000e+02 5.500000000000000000e+01
3.370000000000000000e+02 5.500000000000000000e+01
3.380000000000000000e+02 5.500000000000000000e+01
3.770000000000000000e+02 5.500000000000000000e+01
3.780000000000000000e+02 5.500000000000000000e+01
3.790000000000000000e+02 5.500000000000000000e+01
3.830000000000000000e+02 5.500000000000000000e+01
3.840000000000000000e+02 5.500000000000000000e+01
3.850000000000000000e+02 5.500000000000000000e+01
3.860000000000000000e+02 5.500000000000000000e+01
4.280000000000000000e+02 5.500000000000000000e+01
4.290000000000000000e+02 5.500000000000000000e+01
4.350000000000000000e+02 5.500000000000000000e+01
4.360000000000000000e+02 5.500000000000000000e+01
4.770000000000000000e+02 5.500000000000000000e+01
4.790000000000000000e+02 5.500000000000000000e+01
4.830000000000000000e+02 5.500000000000000000e+01
4.840000000000000000e+02 5.500000000000000000e+01
4.860000000000000000e+02 5.500000000000000000e+01
4.870000000000000000e+02 5.500000000000000000e+01
5.290000000000000000e+02 5.500000000000000000e+01
5.370000000000000000e+02 5.500000000000000000e+01
5.750000000000000000e+02 5.500000000000000000e+01
5.760000000000000000e+02 5.500000000000000000e+01
5.780000000000000000e+02 5.500000000000000000e+01
5.840000000000000000e+02 5.500000000000000000e+01
5.850000000000000000e+02 5.500000000000000000e+01
5.870000000000000000e+02 5.500000000000000000e+01
5.880000000000000000e+02 5.500000000000000000e+01
5.900000000000000000e+02 5.500000000000000000e+01
6.330000000000000000e+02 5.500000000000000000e+01
6.360000000000000000e+02 5.500000000000000000e+01
6.370000000000000000e+02 5.500000000000000000e+01
6.760000000000000000e+02 5.500000000000000000e+01
6.770000000000000000e+02 5.500000000000000000e+01
6.780000000000000000e+02 5.500000000000000000e+01
6.840000000000000000e+02 5.500000000000000000e+01
6.860000000000000000e+02 5.500000000000000000e+01
4.000000000000000000e+01 5.600000000000000000e+01
8.700000000000000000e+01 5.600000000000000000e+01
8.800000000000000000e+01 5.600000000000000000e+01
1.360000000000000000e+02 5.600000000000000000e+01
1.850000000000000000e+02 5.600000000000000000e+01
1.860000000000000000e+02 5.600000000000000000e+01
2.280000000000000000e+02 5.600000000000000000e+01
2.340000000000000000e+02 5.600000000000000000e+01
2.780000000000000000e+02 5.600000000000000000e+01
2.830000000000000000e+02 5.600000000000000000e+01
2.850000000000000000e+02 5.600000000000000000e+01
2.860000000000000000e+02 5.600000000000000000e+01
3.330000000000000000e+02 5.600000000000000000e+01
3.830000000000000000e+02 5.600000000000000000e+01
4.280000000000000000e+02 5.600000000000000000e+01
4.330000000000000000e+02 5.600000000000000000e+01
4.830000000000000000e+02 5.600000000000000000e+01
5.330000000000000000e+02 5.600000000000000000e+01
5.770000000000000000e+02 5.600000000000000000e+01
5.820000000000000000e+02 5.600000000000000000e+01
5.830000000000000000e+02 5.600000000000000000e+01
6.280000000000000000e+02 5.600000000000000000e+01
6.320000000000000000e+02 5.600000000000000000e+01
6.820000000000000000e+02 5.600000000000000000e+01
8.800000000000000000e+01 5.700000000000000000e+01
1.360000000000000000e+02 5.700000000000000000e+01
1.850000000000000000e+02 5.700000000000000000e+01
2.830000000000000000e+02 5.700000000000000000e+01
3.330000000000000000e+02 5.700000000000000000e+01
3.830000000000000000e+02 5.700000000000000000e+01
4.330000000000000000e+02 5.700000000000000000e+01
4.830000000000000000e+02 5.700000000000000000e+01
5.820000000000000000e+02 5.700000000000000000e+01
6.320000000000000000e+02 5.700000000000000000e+01
2.830000000000000000e+02 5.800000000000000000e+01
5.820000000000000000e+02 5.800000000000000000e+01
6.320000000000000000e+02 5.800000000000000000e+01
5.820000000000000000e+02 5.900000000000000000e+01
