1.780000000000000000e+02 7.700000000000000000e+01
4.800000000000000000e+01 7.800000000000000000e+01
4.900000000000000000e+01 7.800000000000000000e+01
5.700000000000000000e+01 7.800000000000000000e+01
5.800000000000000000e+01 7.800000000000000000e+01
6.100000000000000000e+01 7.800000000000000000e+01
6.200000000000000000e+01 7.800000000000000000e+01
1.090000000000000000e+02 7.800000000000000000e+01
1.780000000000000000e+02 7.800000000000000000e+01
4.200000000000000000e+01 7.900000000000000000e+01
4.800000000000000000e+01 7.900000000000000000e+01
4.900000000000000000e+01 7.900000000000000000e+01
5.700000000000000000e+01 7.900000000000000000e+01
5.800000000000000000e+01 7.900000000000000000e+01
6.100000000000000000e+01 7.900000000000000000e+01
6.200000000000000000e+01 7.900000000000000000e+01
1.090000000000000000e+02 7.900000000000000000e+01
1.780000000000000000e+02 7.900000000000000000e+01
4.100000000000000000e+01 8.000000000000000000e+01
4.200000000000000000e+01 8.000000000000000000e+01
4.900000000000000000e+01 8.000000000000000000e+01
5.000000000000000000e+01 8.000000000000000000e+01
5.600000000000000000e+01 8.000000000000000000e+01
5.700000000000000000e+01 8.000000000000000000e+01
6.100000000000000000e+01 8.000000000000000000e+01
6.200000000000000000e+01 8.000000000000000000e+01
1.090000000000000000e+02 8.000000000000000000e+01
1.770000000000000000e+02 8.000000000000000000e+01
1.780000000000000000e+02 8.000000000000000000e+01
4.100000000000000000e+01 8.100000000000000000e+01
4.200000000000000000e+01 8.100000000000000000e+01
4.300000000000000000e+01 8.100000000000000000e+01
4.400000000000000000e+01 8.100000000000000000e+01
4.500000000000000000e+01 8.100000000000000000e+01
4.900000000000000000e+01 8.100000000000000000e+01
5.000000000000000000e+01 8.100000000000000000e+01
5.600000000000000000e+01 8.100000000000000000e+01
5.700000000000000000e+01 8.100000000000000000e+01
6.100000000000000000e+01 8.100000000000000000e+01
6.200000000000000000e+01 8.100000000000000000e+01
1.080000000000000000e+02 8.100000000000000000e+01
1.090000000000000000e+02 8.100000000000000000e+01
1.770000000000000000e+02 8.100000000000000000e+01
1.780000000000000000e+02 8.100000000000000000e+01
4.000000000000000000e+01 8.200000000000000000e+01
4.100000000000000000e+01 8.200000000000000000e+01
4.200000000000000000e+01 8.200000000000000000e+01
4.300000000000000000e+01 8.200000000000000000e+01
4.400000000000000000e+01 8.200000000000000000e+01
4.500000000000000000e+01 8.200000000000000000e+01
4.600000000000000000e+01 8.200000000000000000e+01
4.900000000000000000e+01 8.200000000000000000e+01
5.000000000000000000e+01 8.200000000000000000e+01
5.600000000000000000e+01 8.200000000000000000e+01
5.700000000000000000e+01 8.200000000000000000e+01
6.100000000000000000e+01 8.200000000000000000e+01
6.200000000000000000e+01 8.200000000000000000e+01
1.080000000000000000e+02 8.200000000000000000e+01
1.090000000000000000e+02 8.200000000000000000e+01
1.770000000000000000e+02 8.200000000000000000e+01
1.780000000000000000e+02 8.200000000000000000e+01
3.900000000000000000e+01 8.300000000000000000e+01
4.000000000000000000e+01 8.300000000000000000e+01
4.100000000000000000e+01 8.300000000000000000e+01
4.200000000000000000e+01 8.300000000000000000e+01
4.500000000000000000e+01 8.300000000000000000e+01
4.600000000000000000e+01 8.300000000000000000e+01
5.000000000000000000e+01 8.300000000000000000e+01
5.100000000000000000e+01 8.300000000000000000e+01
5.500000000000000000e+01 8.300000000000000000e+01
5.600000000000000000e+01 8.300000000000000000e+01
6.100000000000000000e+01 8.300000000000000000e+01
6.200000000000000000e+01 8.300000000000000000e+01
1.080000000000000000e+02 8.300000000000000000e+01
1.100000000000000000e+02 8.300000000000000000e+01
1.770000000000000000e+02 8.300000000000000000e+01
1.780000000000000000e+02 8.300000000000000000e+01
4.100000000000000000e+01 8.400000000000000000e+01
4.200000000000000000e+01 8.400000000000000000e+01
4.300000000000000000e+01 8.400000000000000000e+01
4.400000000000000000e+01 8.400000000000000000e+01
4.500000000000000000e+01 8.400000000000000000e+01
4.600000000000000000e+01 8.400000000000000000e+01
5.000000000000000000e+01 8.400000000000000000e+01
5.100000000000000000e+01 8.400000000000000000e+01
5.500000000000000000e+01 8.400000000000000000e+01
5.600000000000000000e+01 8.400000000000000000e+01
6.100000000000000000e+01 8.400000000000000000e+01
6.200000000000000000e+01 8.400000000000000000e+01
1.080000000000000000e+02 8.400000000000000000e+01
1.100000000000000000e+02 8.400000000000000000e+01
1.770000000000000000e+02 8.400000000000000000e+01
1.780000000000000000e+02 8.400000000000000000e+01
4.000000000000000000e+01 8.500000000000000000e+01
4.100000000000000000e+01 8.500000000000000000e+01
4.200000000000000000e+01 8.500000000000000000e+01
4.300000000000000000e+01 8.500000000000000000e+01
4.400000000000000000e+01 8.500000000000000000e+01
4.500000000000000000e+01 8.500000000000000000e+01
4.600000000000000000e+01 8.500000000000000000e+01
5.000000000000000000e+01 8.500000000000000000e+01
5.100000000000000000e+01 8.500000000000000000e+01
5.500000000000000000e+01 8.500000000000000000e+01
5.600000000000000000e+01 8.500000000000000000e+01
6.100000000000000000e+01 8.500000000000000000e+01
6.200000000000000000e+01 8.500000000000000000e+01
1.080000000000000000e+02 8.500000000000000000e+01
1.100000000000000000e+02 8.500000000000000000e+01
1.770000000000000000e+02 8.500000000000000000e+01
1.790000000000000000e+02 8.500000000000000000e+01
3.900000000000000000e+01 8.600000000000000000e+01
4.000000000000000000e+01 8.600000000000000000e+01
4.100000000000000000e+01 8.600000000000000000e+01
4.200000000000000000e+01 8.600000000000000000e+01
4.300000000000000000e+01 8.600000000000000000e+01
4.500000000000000000e+01 8.600000000000000000e+01
4.600000000000000000e+01 8.600000000000000000e+01
5.100000000000000000e+01 8.600000000000000000e+01
5.200000000000000000e+01 8.600000000000000000e+01
5.400000000000000000e+01 8.600000000000000000e+01
5.500000000000000000e+01 8.600000000000000000e+01
6.100000000000000000e+01 8.600000000000000000e+01
6.200000000000000000e+01 8.600000000000000000e+01
1.080000000000000000e+02 8.600000000000000000e+01
1.100000000000000000e+02 8.600000000000000000e+01
1.770000000000000000e+02 8.600000000000000000e+01
1.790000000000000000e+02 8.600000000000000000e+01
3.900000000000000000e+01 8.700000000000000000e+01
4.000000000000000000e+01 8.700000000000000000e+01
4.100000000000000000e+01 8.700000000000000000e+01
4.300000000000000000e+01 8.700000000000000000e+01
4.500000000000000000e+01 8.700000000000000000e+01
4.600000000000000000e+01 8.700000000000000000e+01
5.100000000000000000e+01 8.700000000000000000e+01
5.200000000000000000e+01 8.700000000000000000e+01
5.400000000000000000e+01 8.700000000000000000e+01
5.500000000000000000e+01 8.700000000000000000e+01
6.100000000000000000e+01 8.700000000000000000e+01
6.200000000000000000e+01 8.700000000000000000e+01
1.080000000000000000e+02 8.700000000000000000e+01
1.100000000000000000e+02 8.700000000000000000e+01
1.770000000000000000e+02 8.700000000000000000e+01
1.790000000000000000e+02 8.700000000000000000e+01
3.900000000000000000e+01 8.800000000000000000e+01
4.000000000000000000e+01 8.800000000000000000e+01
4.100000000000000000e+01 8.800000000000000000e+01
4.300000000000000000e+01 8.800000000000000000e+01
4.400000000000000000e+01 8.800000000000000000e+01
4.500000000000000000e+01 8.800000000000000000e+01
4.600000000000000000e+01 8.800000000000000000e+01
5.100000000000000000e+01 8.800000000000000000e+01
5.200000000000000000e+01 8.800000000000000000e+01
5.400000000000000000e+01 8.800000000000000000e+01
5.500000000000000000e+01 8.800000000000000000e+01
6.100000000000000000e+01 8.800000000000000000e+01
6.200000000000000000e+01 8.800000000000000000e+01
1.080000000000000000e+02 8.800000000000000000e+01
1.100000000000000000e+02 8.800000000000000000e+01
1.770000000000000000e+02 8.800000000000000000e+01
1.790000000000000000e+02 8.800000000000000000e+01
3.900000000000000000e+01 8.900000000000000000e+01
4.000000000000000000e+01 8.900000000000000000e+01
4.100000000000000000e+01 8.900000000000000000e+01
4.200000000000000000e+01 8.900000000000000000e+01
4.300000000000000000e+01 8.900000000000000000e+01
4.400000000000000000e+01 8.900000000000000000e+01
4.500000000000000000e+01 8.900000000000000000e+01
4.600000000000000000e+01 8.900000000000000000e+01
5.200000000000000000e+01 8.900000000000000000e+01
5.300000000000000000e+01 8.900000000000000000e+01
5.400000000000000000e+01 8.900000000000000000e+01
6.100000000000000000e+01 8.900000000000000000e+01
6.200000000000000000e+01 8.900000000000000000e+01
6.300000000000000000e+01 8.900000000000000000e+01
6.400000000000000000e+01 8.900000000000000000e+01
6.500000000000000000e+01 8.900000000000000000e+01
6.600000000000000000e+01 8.900000000000000000e+01
6.700000000000000000e+01 8.900000000000000000e+01
6.800000000000000000e+01 8.900000000000000000e+01
1.080000000000000000e+02 8.900000000000000000e+01
1.100000000000000000e+02 8.900000000000000000e+01
1.770000000000000000e+02 8.900000000000000000e+01
1.790000000000000000e+02 8.900000000000000000e+01
4.000000000000000000e+01 9.000000000000000000e+01
4.100000000000000000e+01 9.000000000000000000e+01
4.200000000000000000e+01 9.000000000000000000e+01
4.300000000000000000e+01 9.000000000000000000e+01
4.500000000000000000e+01 9.000000000000000000e+01
4.600000000000000000e+01 9.000000000000000000e+01
5.200000000000000000e+01 9.000000000000000000e+01
5.300000000000000000e+01 9.000000000000000000e+01
5.400000000000000000e+01 9.000000000000000000e+01
6.100000000000000000e+01 9.000000000000000000e+01
6.200000000000000000e+01 9.000000000000000000e+01
6.300000000000000000e+01 9.000000000000000000e+01
6.400000000000000000e+01 9.000000000000000000e+01
6.500000000000000000e+01 9.000000000000000000e+01
6.600000000000000000e+01 9.000000000000000000e+01
6.700000000000000000e+01 9.000000000000000000e+01
6.800000000000000000e+01 9.000000000000000000e+01
1.080000000000000000e+02 9.000000000000000000e+01
1.100000000000000000e+02 9.000000000000000000e+01
1.770000000000000000e+02 9.000000000000000000e+01
1.790000000000000000e+02 9.000000000000000000e+01
4.100000000000000000e+01 9.100000000000000000e+01
4.300000000000000000e+01 9.100000000000000000e+01
6.800000000000000000e+01 9.100000000000000000e+01
6.900000000000000000e+01 9.100000000000000000e+01
1.080000000000000000e+02 9.100000000000000000e+01
1.100000000000000000e+02 9.100000000000000000e+01
1.770000000000000000e+02 9.100000000000000000e+01
1.790000000000000000e+02 9.100000000000000000e+01
4.100000000000000000e+01 9.200000000000000000e+01
4.300000000000000000e+01 9.200000000000000000e+01
4.400000000000000000e+01 9.200000000000000000e+01
6.500000000000000000e+01 9.200000000000000000e+01
6.600000000000000000e+01 9.200000000000000000e+01
6.700000000000000000e+01 9.200000000000000000e+01
6.800000000000000000e+01 9.200000000000000000e+01
6.900000000000000000e+01 9.200000000000000000e+01
1.080000000000000000e+02 9.200000000000000000e+01
1.100000000000000000e+02 9.200000000000000000e+01
1.770000000000000000e+02 9.200000000000000000e+01
1.790000000000000000e+02 9.200000000000000000e+01
4.100000000000000000e+01 9.300000000000000000e+01
4.400000000000000000e+01 9.300000000000000000e+01
6.500000000000000000e+01 9.300000000000000000e+01
6.600000000000000000e+01 9.300000000000000000e+01
6.700000000000000000e+01 9.300000000000000000e+01
6.800000000000000000e+01 9.300000000000000000e+01
6.900000000000000000e+01 9.300000000000000000e+01
7.100000000000000000e+01 9.300000000000000000e+01
1.080000000000000000e+02 9.300000000000000000e+01
1.100000000000000000e+02 9.300000000000000000e+01
1.330000000000000000e+02 9.300000000000000000e+01
1.350000000000000000e+02 9.300000000000000000e+01
1.360000000000000000e+02 9.300000000000000000e+01
1.760000000000000000e+02 9.300000000000000000e+01
1.790000000000000000e+02 9.300000000000000000e+01
3.000000000000000000e+00 9.400000000000000000e+01
4.000000000000000000e+01 9.400000000000000000e+01
4.400000000000000000e+01 9.400000000000000000e+01
6.500000000000000000e+01 9.400000000000000000e+01
6.600000000000000000e+01 9.400000000000000000e+01
6.700000000000000000e+01 9.400000000000000000e+01
6.900000000000000000e+01 9.400000000000000000e+01
7.000000000000000000e+01 9.400000000000000000e+01
7.100000000000000000e+01 9.400000000000000000e+01
1.080000000000000000e+02 9.400000000000000000e+01
1.100000000000000000e+02 9.400000000000000000e+01
1.110000000000000000e+02 9.400000000000000000e+01
1.330000000000000000e+02 9.400000000000000000e+01
1.340000000000000000e+02 9.400000000000000000e+01
1.350000000000000000e+02 9.400000000000000000e+01
1.360000000000000000e+02 9.400000000000000000e+01
1.370000000000000000e+02 9.400000000000000000e+01
1.380000000000000000e+02 9.400000000000000000e+01
1.760000000000000000e+02 9.400000000000000000e+01
1.790000000000000000e+02 9.400000000000000000e+01
1.800000000000000000e+02 9.400000000000000000e+01
3.000000000000000000e+00 9.500000000000000000e+01
2.400000000000000000e+01 9.500000000000000000e+01
2.700000000000000000e+01 9.500000000000000000e+01
4.000000000000000000e+01 9.500000000000000000e+01
4.400000000000000000e+01 9.500000000000000000e+01
6.400000000000000000e+01 9.500000000000000000e+01
6.500000000000000000e+01 9.500000000000000000e+01
6.600000000000000000e+01 9.500000000000000000e+01
6.900000000000000000e+01 9.500000000000000000e+01
7.000000000000000000e+01 9.500000000000000000e+01
7.100000000000000000e+01 9.500000000000000000e+01
1.080000000000000000e+02 9.500000000000000000e+01
1.100000000000000000e+02 9.500000000000000000e+01
1.110000000000000000e+02 9.500000000000000000e+01
1.320000000000000000e+02 9.500000000000000000e+01
1.330000000000000000e+02 9.500000000000000000e+01
1.340000000000000000e+02 9.500000000000000000e+01
1.350000000000000000e+02 9.500000000000000000e+01
1.360000000000000000e+02 9.500000000000000000e+01
1.370000000000000000e+02 9.500000000000000000e+01
1.380000000000000000e+02 9.500000000000000000e+01
1.760000000000000000e+02 9.500000000000000000e+01
1.800000000000000000e+02 9.500000000000000000e+01
0.000000000000000000e+00 9.600000000000000000e+01
1.000000000000000000e+00 9.600000000000000000e+01
2.000000000000000000e+00 9.600000000000000000e+01
3.000000000000000000e+00 9.600000000000000000e+01
4.000000000000000000e+00 9.600000000000000000e+01
2.400000000000000000e+01 9.600000000000000000e+01
2.600000000000000000e+01 9.600000000000000000e+01
2.700000000000000000e+01 9.600000000000000000e+01
4.000000000000000000e+01 9.600000000000000000e+01
4.400000000000000000e+01 9.600000000000000000e+01
6.300000000000000000e+01 9.600000000000000000e+01
6.400000000000000000e+01 9.600000000000000000e+01
6.900000000000000000e+01 9.600000000000000000e+01
7.000000000000000000e+01 9.600000000000000000e+01
7.100000000000000000e+01 9.600000000000000000e+01
7.200000000000000000e+01 9.600000000000000000e+01
1.080000000000000000e+02 9.600000000000000000e+01
1.110000000000000000e+02 9.600000000000000000e+01
1.320000000000000000e+02 9.600000000000000000e+01
1.350000000000000000e+02 9.600000000000000000e+01
1.360000000000000000e+02 9.600000000000000000e+01
1.370000000000000000e+02 9.600000000000000000e+01
1.380000000000000000e+02 9.600000000000000000e+01
1.390000000000000000e+02 9.600000000000000000e+01
1.760000000000000000e+02 9.600000000000000000e+01
1.800000000000000000e+02 9.600000000000000000e+01
0.000000000000000000e+00 9.700000000000000000e+01
1.000000000000000000e+00 9.700000000000000000e+01
2.000000000000000000e+00 9.700000000000000000e+01
3.000000000000000000e+00 9.700000000000000000e+01
4.000000000000000000e+00 9.700000000000000000e+01
5.000000000000000000e+00 9.700000000000000000e+01
2.400000000000000000e+01 9.700000000000000000e+01
2.600000000000000000e+01 9.700000000000000000e+01
2.700000000000000000e+01 9.700000000000000000e+01
2.800000000000000000e+01 9.700000000000000000e+01
2.900000000000000000e+01 9.700000000000000000e+01
3.000000000000000000e+01 9.700000000000000000e+01
3.100000000000000000e+01 9.700000000000000000e+01
4.000000000000000000e+01 9.700000000000000000e+01
4.400000000000000000e+01 9.700000000000000000e+01
6.200000000000000000e+01 9.700000000000000000e+01
6.300000000000000000e+01 9.700000000000000000e+01
6.400000000000000000e+01 9.700000000000000000e+01
7.200000000000000000e+01 9.700000000000000000e+01
1.080000000000000000e+02 9.700000000000000000e+01
1.110000000000000000e+02 9.700000000000000000e+01
1.300000000000000000e+02 9.700000000000000000e+01
1.320000000000000000e+02 9.700000000000000000e+01
1.350000000000000000e+02 9.700000000000000000e+01
1.370000000000000000e+02 9.700000000000000000e+01
1.380000000000000000e+02 9.700000000000000000e+01
1.390000000000000000e+02 9.700000000000000000e+01
1.760000000000000000e+02 9.700000000000000000e+01
1.800000000000000000e+02 9.700000000000000000e+01
1.990000000000000000e+02 9.700000000000000000e+01
0.000000000000000000e+00 9.800000000000000000e+01
1.000000000000000000e+00 9.800000000000000000e+01
2.000000000000000000e+00 9.800000000000000000e+01
3.000000000000000000e+00 9.800000000000000000e+01
4.000000000000000000e+00 9.800000000000000000e+01
5.000000000000000000e+00 9.800000000000000000e+01
7.000000000000000000e+00 9.800000000000000000e+01
2.100000000000000000e+01 9.800000000000000000e+01
2.300000000000000000e+01 9.800000000000000000e+01
2.400000000000000000e+01 9.800000000000000000e+01
2.500000000000000000e+01 9.800000000000000000e+01
2.600000000000000000e+01 9.800000000000000000e+01
2.700000000000000000e+01 9.800000000000000000e+01
2.800000000000000000e+01 9.800000000000000000e+01
2.900000000000000000e+01 9.800000000000000000e+01
3.000000000000000000e+01 9.800000000000000000e+01
3.100000000000000000e+01 9.800000000000000000e+01
4.000000000000000000e+01 9.800000000000000000e+01
4.400000000000000000e+01 9.800000000000000000e+01
6.100000000000000000e+01 9.800000000000000000e+01
6.200000000000000000e+01 9.800000000000000000e+01
6.300000000000000000e+01 9.800000000000000000e+01
7.200000000000000000e+01 9.800000000000000000e+01
1.080000000000000000e+02 9.800000000000000000e+01
1.110000000000000000e+02 9.800000000000000000e+01
1.300000000000000000e+02 9.800000000000000000e+01
1.310000000000000000e+02 9.800000000000000000e+01
1.320000000000000000e+02 9.800000000000000000e+01
1.380000000000000000e+02 9.800000000000000000e+01
1.390000000000000000e+02 9.800000000000000000e+01
1.760000000000000000e+02 9.800000000000000000e+01
1.800000000000000000e+02 9.800000000000000000e+01
1.990000000000000000e+02 9.800000000000000000e+01
