1.760000000000000000e+02 6.500000000000000000e+01
1.760000000000000000e+02 6.600000000000000000e+01
1.760000000000000000e+02 6.700000000000000000e+01
1.770000000000000000e+02 6.700000000000000000e+01
1.760000000000000000e+02 6.800000000000000000e+01
1.770000000000000000e+02 6.800000000000000000e+01
1.760000000000000000e+02 6.900000000000000000e+01
1.770000000000000000e+02 6.900000000000000000e+01
1.760000000000000000e+02 7.000000000000000000e+01
1.770000000000000000e+02 7.000000000000000000e+01
1.760000000000000000e+02 7.100000000000000000e+01
1.770000000000000000e+02 7.100000000000000000e+01
2.000000000000000000e+00 7.200000000000000000e+01
1.760000000000000000e+02 7.200000000000000000e+01
1.770000000000000000e+02 7.200000000000000000e+01
1.000000000000000000e+00 7.300000000000000000e+01
2.000000000000000000e+00 7.300000000000000000e+01
1.760000000000000000e+02 7.300000000000000000e+01
1.770000000000000000e+02 7.300000000000000000e+01
1.000000000000000000e+00 7.400000000000000000e+01
2.000000000000000000e+00 7.400000000000000000e+01
1.760000000000000000e+02 7.400000000000000000e+01
1.770000000000000000e+02 7.400000000000000000e+01
1.000000000000000000e+00 7.500000000000000000e+01
2.000000000000000000e+00 7.500000000000000000e+01
8.700000000000000000e+01 7.500000000000000000e+01
1.760000000000000000e+02 7.500000000000000000e+01
1.770000000000000000e+02 7.500000000000000000e+01
1.000000000000000000e+00 7.600000000000000000e+01
2.000000000000000000e+00 7.600000000000000000e+01
8.700000000000000000e+01 7.600000000000000000e+01
1.750000000000000000e+02 7.600000000000000000e+01
1.760000000000000000e+02 7.600000000000000000e+01
1.770000000000000000e+02 7.600000000000000000e+01
1.000000000000000000e+00 7.700000000000000000e+01
2.000000000000000000e+00 7.700000000000000000e+01
8.600000000000000000e+01 7.700000000000000000e+01
8.700000000000000000e+01 7.700000000000000000e+01
1.750000000000000000e+02 7.700000000000000000e+01
1.770000000000000000e+02 7.700000000000000000e+01
1.000000000000000000e+00 7.800000000000000000e+01
2.000000000000000000e+00 7.800000000000000000e+01
8.600000000000000000e+01 7.800000000000000000e+01
8.700000000000000000e+01 7.800000000000000000e+01
1.750000000000000000e+02 7.800000000000000000e+01
1.770000000000000000e+02 7.800000000000000000e+01
1.000000000000000000e+00 7.900000000000000000e+01
2.000000000000000000e+00 7.900000000000000000e+01
8.600000000000000000e+01 7.900000000000000000e+01
8.700000000000000000e+01 7.900000000000000000e+01
1.750000000000000000e+02 7.900000000000000000e+01
1.770000000000000000e+02 7.900000000000000000e+01
1.000000000000000000e+00 8.000000000000000000e+01
2.000000000000000000e+00 8.000000000000000000e+01
8.600000000000000000e+01 8.000000000000000000e+01
8.700000000000000000e+01 8.000000000000000000e+01
1.750000000000000000e+02 8.000000000000000000e+01
1.770000000000000000e+02 8.000000000000000000e+01
1.000000000000000000e+00 8.100000000000000000e+01
2.000000000000000000e+00 8.100000000000000000e+01
8.600000000000000000e+01 8.100000000000000000e+01
8.700000000000000000e+01 8.100000000000000000e+01
1.750000000000000000e+02 8.100000000000000000e+01
1.770000000000000000e+02 8.100000000000000000e+01
1.000000000000000000e+00 8.200000000000000000e+01
2.000000000000000000e+00 8.200000000000000000e+01
8.600000000000000000e+01 8.200000000000000000e+01
8.700000000000000000e+01 8.200000000000000000e+01
1.750000000000000000e+02 8.200000000000000000e+01
1.770000000000000000e+02 8.200000000000000000e+01
1.000000000000000000e+00 8.300000000000000000e+01
2.000000000000000000e+00 8.300000000000000000e+01
8.600000000000000000e+01 8.300000000000000000e+01
8.700000000000000000e+01 8.300000000000000000e+01
1.100000000000000000e+02 8.300000000000000000e+01
1.110000000000000000e+02 8.300000000000000000e+01
1.190000000000000000e+02 8.300000000000000000e+01
1.200000000000000000e+02 8.300000000000000000e+01
1.250000000000000000e+02 8.300000000000000000e+01
1.260000000000000000e+02 8.300000000000000000e+01
1.270000000000000000e+02 8.300000000000000000e+01
1.280000000000000000e+02 8.300000000000000000e+01
1.750000000000000000e+02 8.300000000000000000e+01
1.770000000000000000e+02 8.300000000000000000e+01
0.000000000000000000e+00 8.400000000000000000e+01
1.000000000000000000e+00 8.400000000000000000e+01
2.000000000000000000e+00 8.400000000000000000e+01
8.600000000000000000e+01 8.400000000000000000e+01
8.700000000000000000e+01 8.400000000000000000e+01
1.100000000000000000e+02 8.400000000000000000e+01
1.110000000000000000e+02 8.400000000000000000e+01
1.190000000000000000e+02 8.400000000000000000e+01
1.200000000000000000e+02 8.400000000000000000e+01
1.240000000000000000e+02 8.400000000000000000e+01
1.250000000000000000e+02 8.400000000000000000e+01
1.260000000000000000e+02 8.400000000000000000e+01
1.270000000000000000e+02 8.400000000000000000e+01
1.280000000000000000e+02 8.400000000000000000e+01
1.290000000000000000e+02 8.400000000000000000e+01
1.750000000000000000e+02 8.400000000000000000e+01
1.770000000000000000e+02 8.400000000000000000e+01
0.000000000000000000e+00 8.500000000000000000e+01
2.000000000000000000e+00 8.500000000000000000e+01
8.600000000000000000e+01 8.500000000000000000e+01
8.700000000000000000e+01 8.500000000000000000e+01
1.110000000000000000e+02 8.500000000000000000e+01
1.120000000000000000e+02 8.500000000000000000e+01
1.180000000000000000e+02 8.500000000000000000e+01
1.190000000000000000e+02 8.500000000000000000e+01
1.230000000000000000e+02 8.500000000000000000e+01
1.240000000000000000e+02 8.500000000000000000e+01
1.250000000000000000e+02 8.500000000000000000e+01
1.280000000000000000e+02 8.500000000000000000e+01
1.290000000000000000e+02 8.500000000000000000e+01
1.300000000000000000e+02 8.500000000000000000e+01
1.750000000000000000e+02 8.500000000000000000e+01
1.770000000000000000e+02 8.500000000000000000e+01
0.000000000000000000e+00 8.600000000000000000e+01
2.000000000000000000e+00 8.600000000000000000e+01
8.600000000000000000e+01 8.600000000000000000e+01
8.700000000000000000e+01 8.600000000000000000e+01
1.110000000000000000e+02 8.600000000000000000e+01
1.120000000000000000e+02 8.600000000000000000e+01
1.180000000000000000e+02 8.600000000000000000e+01
1.190000000000000000e+02 8.600000000000000000e+01
1.230000000000000000e+02 8.600000000000000000e+01
1.240000000000000000e+02 8.600000000000000000e+01
1.290000000000000000e+02 8.600000000000000000e+01
1.300000000000000000e+02 8.600000000000000000e+01
1.740000000000000000e+02 8.600000000000000000e+01
1.750000000000000000e+02 8.600000000000000000e+01
1.770000000000000000e+02 8.600000000000000000e+01
0.000000000000000000e+00 8.700000000000000000e+01
2.000000000000000000e+00 8.700000000000000000e+01
8.600000000000000000e+01 8.700000000000000000e+01
8.700000000000000000e+01 8.700000000000000000e+01
1.110000000000000000e+02 8.700000000000000000e+01
1.120000000000000000e+02 8.700000000000000000e+01
1.180000000000000000e+02 8.700000000000000000e+01
1.190000000000000000e+02 8.700000000000000000e+01
1.290000000000000000e+02 8.700000000000000000e+01
1.300000000000000000e+02 8.700000000000000000e+01
1.740000000000000000e+02 8.700000000000000000e+01
1.750000000000000000e+02 8.700000000000000000e+01
1.770000000000000000e+02 8.700000000000000000e+01
0.000000000000000000e+00 8.800000000000000000e+01
2.000000000000000000e+00 8.800000000000000000e+01
8.600000000000000000e+01 8.800000000000000000e+01
8.700000000000000000e+01 8.800000000000000000e+01
1.120000000000000000e+02 8.800000000000000000e+01
1.130000000000000000e+02 8.800000000000000000e+01
1.170000000000000000e+02 8.800000000000000000e+01
1.180000000000000000e+02 8.800000000000000000e+01
1.290000000000000000e+02 8.800000000000000000e+01
1.300000000000000000e+02 8.800000000000000000e+01
1.740000000000000000e+02 8.800000000000000000e+01
1.750000000000000000e+02 8.800000000000000000e+01
1.770000000000000000e+02 8.800000000000000000e+01
0.000000000000000000e+00 8.900000000000000000e+01
2.000000000000000000e+00 8.900000000000000000e+01
8.600000000000000000e+01 8.900000000000000000e+01
8.700000000000000000e+01 8.900000000000000000e+01
8.800000000000000000e+01 8.900000000000000000e+01
1.120000000000000000e+02 8.900000000000000000e+01
1.130000000000000000e+02 8.900000000000000000e+01
1.170000000000000000e+02 8.900000000000000000e+01
1.180000000000000000e+02 8.900000000000000000e+01
1.280000000000000000e+02 8.900000000000000000e+01
1.290000000000000000e+02 8.900000000000000000e+01
1.740000000000000000e+02 8.900000000000000000e+01
1.770000000000000000e+02 8.900000000000000000e+01
0.000000000000000000e+00 9.000000000000000000e+01
2.000000000000000000e+00 9.000000000000000000e+01
8.500000000000000000e+01 9.000000000000000000e+01
8.600000000000000000e+01 9.000000000000000000e+01
8.800000000000000000e+01 9.000000000000000000e+01
1.120000000000000000e+02 9.000000000000000000e+01
1.130000000000000000e+02 9.000000000000000000e+01
1.170000000000000000e+02 9.000000000000000000e+01
1.180000000000000000e+02 9.000000000000000000e+01
1.270000000000000000e+02 9.000000000000000000e+01
1.280000000000000000e+02 9.000000000000000000e+01
1.740000000000000000e+02 9.000000000000000000e+01
1.770000000000000000e+02 9.000000000000000000e+01
0.000000000000000000e+00 9.100000000000000000e+01
2.000000000000000000e+00 9.100000000000000000e+01
8.500000000000000000e+01 9.100000000000000000e+01
8.800000000000000000e+01 9.100000000000000000e+01
1.130000000000000000e+02 9.100000000000000000e+01
1.140000000000000000e+02 9.100000000000000000e+01
1.160000000000000000e+02 9.100000000000000000e+01
1.170000000000000000e+02 9.100000000000000000e+01
1.260000000000000000e+02 9.100000000000000000e+01
1.270000000000000000e+02 9.100000000000000000e+01
1.740000000000000000e+02 9.100000000000000000e+01
1.770000000000000000e+02 9.100000000000000000e+01
0.000000000000000000e+00 9.200000000000000000e+01
2.000000000000000000e+00 9.200000000000000000e+01
8.500000000000000000e+01 9.200000000000000000e+01
8.800000000000000000e+01 9.200000000000000000e+01
1.130000000000000000e+02 9.200000000000000000e+01
1.140000000000000000e+02 9.200000000000000000e+01
1.160000000000000000e+02 9.200000000000000000e+01
1.170000000000000000e+02 9.200000000000000000e+01
1.250000000000000000e+02 9.200000000000000000e+01
1.260000000000000000e+02 9.200000000000000000e+01
1.740000000000000000e+02 9.200000000000000000e+01
1.770000000000000000e+02 9.200000000000000000e+01
0.000000000000000000e+00 9.300000000000000000e+01
2.000000000000000000e+00 9.300000000000000000e+01
8.500000000000000000e+01 9.300000000000000000e+01
8.800000000000000000e+01 9.300000000000000000e+01
1.130000000000000000e+02 9.300000000000000000e+01
1.140000000000000000e+02 9.300000000000000000e+01
1.160000000000000000e+02 9.300000000000000000e+01
1.170000000000000000e+02 9.300000000000000000e+01
1.240000000000000000e+02 9.300000000000000000e+01
1.250000000000000000e+02 9.300000000000000000e+01
1.740000000000000000e+02 9.300000000000000000e+01
1.770000000000000000e+02 9.300000000000000000e+01
0.000000000000000000e+00 9.400000000000000000e+01
2.000000000000000000e+00 9.400000000000000000e+01
8.500000000000000000e+01 9.400000000000000000e+01
8.800000000000000000e+01 9.400000000000000000e+01
1.140000000000000000e+02 9.400000000000000000e+01
1.150000000000000000e+02 9.400000000000000000e+01
1.160000000000000000e+02 9.400000000000000000e+01
1.230000000000000000e+02 9.400000000000000000e+01
1.240000000000000000e+02 9.400000000000000000e+01
1.250000000000000000e+02 9.400000000000000000e+01
1.260000000000000000e+02 9.400000000000000000e+01
1.270000000000000000e+02 9.400000000000000000e+01
1.280000000000000000e+02 9.400000000000000000e+01
1.290000000000000000e+02 9.400000000000000000e+01
1.300000000000000000e+02 9.400000000000000000e+01
1.740000000000000000e+02 9.400000000000000000e+01
1.770000000000000000e+02 9.400000000000000000e+01
0.000000000000000000e+00 9.500000000000000000e+01
2.000000000000000000e+00 9.500000000000000000e+01
8.500000000000000000e+01 9.500000000000000000e+01
8.800000000000000000e+01 9.500000000000000000e+01
1.140000000000000000e+02 9.500000000000000000e+01
1.150000000000000000e+02 9.500000000000000000e+01
1.160000000000000000e+02 9.500000000000000000e+01
1.230000000000000000e+02 9.500000000000000000e+01
1.240000000000000000e+02 9.500000000000000000e+01
1.250000000000000000e+02 9.500000000000000000e+01
1.260000000000000000e+02 9.500000000000000000e+01
1.270000000000000000e+02 9.500000000000000000e+01
1.280000000000000000e+02 9.500000000000000000e+01
1.290000000000000000e+02 9.500000000000000000e+01
1.300000000000000000e+02 9.500000000000000000e+01
1.740000000000000000e+02 9.500000000000000000e+01
1.770000000000000000e+02 9.500000000000000000e+01
0.000000000000000000e+00 9.600000000000000000e+01
2.000000000000000000e+00 9.600000000000000000e+01
8.500000000000000000e+01 9.600000000000000000e+01
8.800000000000000000e+01 9.600000000000000000e+01
1.120000000000000000e+02 9.600000000000000000e+01
1.130000000000000000e+02 9.600000000000000000e+01
1.140000000000000000e+02 9.600000000000000000e+01
1.150000000000000000e+02 9.600000000000000000e+01
1.730000000000000000e+02 9.600000000000000000e+01
1.770000000000000000e+02 9.600000000000000000e+01
0.000000000000000000e+00 9.700000000000000000e+01
2.000000000000000000e+00 9.700000000000000000e+01
8.500000000000000000e+01 9.700000000000000000e+01
8.800000000000000000e+01 9.700000000000000000e+01
1.110000000000000000e+02 9.700000000000000000e+01
1.120000000000000000e+02 9.700000000000000000e+01
1.130000000000000000e+02 9.700000000000000000e+01
1.150000000000000000e+02 9.700000000000000000e+01
1.160000000000000000e+02 9.700000000000000000e+01
1.730000000000000000e+02 9.700000000000000000e+01
1.770000000000000000e+02 9.700000000000000000e+01
0.000000000000000000e+00 9.800000000000000000e+01
2.000000000000000000e+00 9.800000000000000000e+01
8.500000000000000000e+01 9.800000000000000000e+01
8.800000000000000000e+01 9.800000000000000000e+01
1.100000000000000000e+02 9.800000000000000000e+01
1.110000000000000000e+02 9.800000000000000000e+01
1.120000000000000000e+02 9.800000000000000000e+01
1.160000000000000000e+02 9.800000000000000000e+01
1.730000000000000000e+02 9.800000000000000000e+01
1.770000000000000000e+02 9.800000000000000000e+01
