2.900000000000000000e+01 0.000000000000000000e+00
3.000000000000000000e+01 0.000000000000000000e+00
9.100000000000000000e+01 0.000000000000000000e+00
2.180000000000000000e+02 0.000000000000000000e+00
2.870000000000000000e+02 0.000000000000000000e+00
3.500000000000000000e+02 0.000000000000000000e+00
4.140000000000000000e+02 0.000000000000000000e+00
5.390000000000000000e+02 0.000000000000000000e+00
5.400000000000000000e+02 0.000000000000000000e+00
5.440000000000000000e+02 0.000000000000000000e+00
6.020000000000000000e+02 0.000000000000000000e+00
6.060000000000000000e+02 0.000000000000000000e+00
6.640000000000000000e+02 0.000000000000000000e+00
6.680000000000000000e+02 0.000000000000000000e+00
7.260000000000000000e+02 0.000000000000000000e+00
7.300000000000000000e+02 0.000000000000000000e+00
7.900000000000000000e+02 0.000000000000000000e+00
7.930000000000000000e+02 0.000000000000000000e+00
2.870000000000000000e+02 1.000000000000000000e+00
5.400000000000000000e+02 1.000000000000000000e+00
5.430000000000000000e+02 1.000000000000000000e+00
5.440000000000000000e+02 1.000000000000000000e+00
6.020000000000000000e+02 1.000000000000000000e+00
6.060000000000000000e+02 1.000000000000000000e+00
6.640000000000000000e+02 1.000000000000000000e+00
6.680000000000000000e+02 1.000000000000000000e+00
7.260000000000000000e+02 1.000000000000000000e+00
7.300000000000000000e+02 1.000000000000000000e+00
7.900000000000000000e+02 1.000000000000000000e+00
7.930000000000000000e+02 1.000000000000000000e+00
5.400000000000000000e+02 2.000000000000000000e+00
5.430000000000000000e+02 2.000000000000000000e+00
6.020000000000000000e+02 2.000000000000000000e+00
6.060000000000000000e+02 2.000000000000000000e+00
6.640000000000000000e+02 2.000000000000000000e+00
6.680000000000000000e+02 2.000000000000000000e+00
7.260000000000000000e+02 2.000000000000000000e+00
7.300000000000000000e+02 2.000000000000000000e+00
7.900000000000000000e+02 2.000000000000000000e+00
7.930000000000000000e+02 2.000000000000000000e+00
5.400000000000000000e+02 3.000000000000000000e+00
5.430000000000000000e+02 3.000000000000000000e+00
6.020000000000000000e+02 3.000000000000000000e+00
6.060000000000000000e+02 3.000000000000000000e+00
6.640000000000000000e+02 3.000000000000000000e+00
6.680000000000000000e+02 3.000000000000000000e+00
7.260000000000000000e+02 3.000000000000000000e+00
7.300000000000000000e+02 3.000000000000000000e+00
7.900000000000000000e+02 3.000000000000000000e+00
7.930000000000000000e+02 3.000000000000000000e+00
5.400000000000000000e+02 4.000000000000000000e+00
5.430000000000000000e+02 4.000000000000000000e+00
6.020000000000000000e+02 4.000000000000000000e+00
6.060000000000000000e+02 4.000000000000000000e+00
6.640000000000000000e+02 4.000000000000000000e+00
6.680000000000000000e+02 4.000000000000000000e+00
7.260000000000000000e+02 4.000000000000000000e+00
7.300000000000000000e+02 4.000000000000000000e+00
7.900000000000000000e+02 4.000000000000000000e+00
7.930000000000000000e+02 4.000000000000000000e+00
5.400000000000000000e+02 5.000000000000000000e+00
5.430000000000000000e+02 5.000000000000000000e+00
6.020000000000000000e+02 5.000000000000000000e+00
6.060000000000000000e+02 5.000000000000000000e+00
6.640000000000000000e+02 5.000000000000000000e+00
6.680000000000000000e+02 5.000000000000000000e+00
7.270000000000000000e+02 5.000000000000000000e+00
7.300000000000000000e+02 5.000000000000000000e+00
7.900000000000000000e+02 5.000000000000000000e+00
7.920000000000000000e+02 5.000000000000000000e+00
7.930000000000000000e+02 5.000000000000000000e+00
5.400000000000000000e+02 6.000000000000000000e+00
5.430000000000000000e+02 6.000000000000000000e+00
6.020000000000000000e+02 6.000000000000000000e+00
6.060000000000000000e+02 6.000000000000000000e+00
6.640000000000000000e+02 6.000000000000000000e+00
6.680000000000000000e+02 6.000000000000000000e+00
7.270000000000000000e+02 6.000000000000000000e+00
7.300000000000000000e+02 6.000000000000000000e+00
7.900000000000000000e+02 6.000000000000000000e+00
7.920000000000000000e+02 6.000000000000000000e+00
5.400000000000000000e+02 7.000000000000000000e+00
5.430000000000000000e+02 7.000000000000000000e+00
6.020000000000000000e+02 7.000000000000000000e+00
6.050000000000000000e+02 7.000000000000000000e+00
6.640000000000000000e+02 7.000000000000000000e+00
6.680000000000000000e+02 7.000000000000000000e+00
7.270000000000000000e+02 7.000000000000000000e+00
7.300000000000000000e+02 7.000000000000000000e+00
7.900000000000000000e+02 7.000000000000000000e+00
7.920000000000000000e+02 7.000000000000000000e+00
5.400000000000000000e+02 8.000000000000000000e+00
5.430000000000000000e+02 8.000000000000000000e+00
6.020000000000000000e+02 8.000000000000000000e+00
6.050000000000000000e+02 8.000000000000000000e+00
6.640000000000000000e+02 8.000000000000000000e+00
6.680000000000000000e+02 8.000000000000000000e+00
7.270000000000000000e+02 8.000000000000000000e+00
7.300000000000000000e+02 8.000000000000000000e+00
7.900000000000000000e+02 8.000000000000000000e+00
7.920000000000000000e+02 8.000000000000000000e+00
5.400000000000000000e+02 9.000000000000000000e+00
5.430000000000000000e+02 9.000000000000000000e+00
6.020000000000000000e+02 9.000000000000000000e+00
6.050000000000000000e+02 9.000000000000000000e+00
6.640000000000000000e+02 9.000000000000000000e+00
6.680000000000000000e+02 9.000000000000000000e+00
7.270000000000000000e+02 9.000000000000000000e+00
7.300000000000000000e+02 9.000000000000000000e+00
7.900000000000000000e+02 9.000000000000000000e+00
7.920000000000000000e+02 9.000000000000000000e+00
5.400000000000000000e+02 1.000000000000000000e+01
5.430000000000000000e+02 1.000000000000000000e+01
6.020000000000000000e+02 1.000000000000000000e+01
6.050000000000000000e+02 1.000000000000000000e+01
6.640000000000000000e+02 1.000000000000000000e+01
6.680000000000000000e+02 1.000000000000000000e+01
7.270000000000000000e+02 1.000000000000000000e+01
7.300000000000000000e+02 1.000000000000000000e+01
7.900000000000000000e+02 1.000000000000000000e+01
7.920000000000000000e+02 1.000000000000000000e+01
5.400000000000000000e+02 1.100000000000000000e+01
5.430000000000000000e+02 1.100000000000000000e+01
6.020000000000000000e+02 1.100000000000000000e+01
6.050000000000000000e+02 1.100000000000000000e+01
6.640000000000000000e+02 1.100000000000000000e+01
6.680000000000000000e+02 1.100000000000000000e+01
7.270000000000000000e+02 1.100000000000000000e+01
7.300000000000000000e+02 1.100000000000000000e+01
7.900000000000000000e+02 1.100000000000000000e+01
7.920000000000000000e+02 1.100000000000000000e+01
5.400000000000000000e+02 1.200000000000000000e+01
5.430000000000000000e+02 1.200000000000000000e+01
6.020000000000000000e+02 1.200000000000000000e+01
6.050000000000000000e+02 1.200000000000000000e+01
6.640000000000000000e+02 1.200000000000000000e+01
6.680000000000000000e+02 1.200000000000000000e+01
7.270000000000000000e+02 1.200000000000000000e+01
7.300000000000000000e+02 1.200000000000000000e+01
7.900000000000000000e+02 1.200000000000000000e+01
7.920000000000000000e+02 1.200000000000000000e+01
5.400000000000000000e+02 1.300000000000000000e+01
5.430000000000000000e+02 1.300000000000000000e+01
6.020000000000000000e+02 1.300000000000000000e+01
6.050000000000000000e+02 1.300000000000000000e+01
6.640000000000000000e+02 1.300000000000000000e+01
6.680000000000000000e+02 1.300000000000000000e+01
7.270000000000000000e+02 1.300000000000000000e+01
7.300000000000000000e+02 1.300000000000000000e+01
7.900000000000000000e+02 1.300000000000000000e+01
7.920000000000000000e+02 1.300000000000000000e+01
5.400000000000000000e+02 1.400000000000000000e+01
5.430000000000000000e+02 1.400000000000000000e+01
6.020000000000000000e+02 1.400000000000000000e+01
6.050000000000000000e+02 1.400000000000000000e+01
6.640000000000000000e+02 1.400000000000000000e+01
6.680000000000000000e+02 1.400000000000000000e+01
7.270000000000000000e+02 1.400000000000000000e+01
7.300000000000000000e+02 1.400000000000000000e+01
7.900000000000000000e+02 1.400000000000000000e+01
7.920000000000000000e+02 1.400000000000000000e+01
5.400000000000000000e+02 1.500000000000000000e+01
5.430000000000000000e+02 1.500000000000000000e+01
6.020000000000000000e+02 1.500000000000000000e+01
6.050000000000000000e+02 1.500000000000000000e+01
6.640000000000000000e+02 1.500000000000000000e+01
6.680000000000000000e+02 1.500000000000000000e+01
7.270000000000000000e+02 1.500000000000000000e+01
7.300000000000000000e+02 1.500000000000000000e+01
7.900000000000000000e+02 1.500000000000000000e+01
7.920000000000000000e+02 1.500000000000000000e+01
5.400000000000000000e+02 1.600000000000000000e+01
5.430000000000000000e+02 1.600000000000000000e+01
6.020000000000000000e+02 1.600000000000000000e+01
6.050000000000000000e+02 1.600000000000000000e+01
6.650000000000000000e+02 1.600000000000000000e+01
6.670000000000000000e+02 1.600000000000000000e+01
7.270000000000000000e+02 1.600000000000000000e+01
7.300000000000000000e+02 1.600000000000000000e+01
7.900000000000000000e+02 1.600000000000000000e+01
7.920000000000000000e+02 1.600000000000000000e+01
5.400000000000000000e+02 1.700000000000000000e+01
5.430000000000000000e+02 1.700000000000000000e+01
6.020000000000000000e+02 1.700000000000000000e+01
6.050000000000000000e+02 1.700000000000000000e+01
6.650000000000000000e+02 1.700000000000000000e+01
6.670000000000000000e+02 1.700000000000000000e+01
7.270000000000000000e+02 1.700000000000000000e+01
7.300000000000000000e+02 1.700000000000000000e+01
7.900000000000000000e+02 1.700000000000000000e+01
7.910000000000000000e+02 1.700000000000000000e+01
7.920000000000000000e+02 1.700000000000000000e+01
5.400000000000000000e+02 1.800000000000000000e+01
5.430000000000000000e+02 1.800000000000000000e+01
6.020000000000000000e+02 1.800000000000000000e+01
6.050000000000000000e+02 1.800000000000000000e+01
6.650000000000000000e+02 1.800000000000000000e+01
6.670000000000000000e+02 1.800000000000000000e+01
7.270000000000000000e+02 1.800000000000000000e+01
7.300000000000000000e+02 1.800000000000000000e+01
7.900000000000000000e+02 1.800000000000000000e+01
7.910000000000000000e+02 1.800000000000000000e+01
5.400000000000000000e+02 1.900000000000000000e+01
5.430000000000000000e+02 1.900000000000000000e+01
6.020000000000000000e+02 1.900000000000000000e+01
6.050000000000000000e+02 1.900000000000000000e+01
6.650000000000000000e+02 1.900000000000000000e+01
6.670000000000000000e+02 1.900000000000000000e+01
7.270000000000000000e+02 1.900000000000000000e+01
7.300000000000000000e+02 1.900000000000000000e+01
7.910000000000000000e+02 1.900000000000000000e+01
5.400000000000000000e+02 2.000000000000000000e+01
5.420000000000000000e+02 2.000000000000000000e+01
5.430000000000000000e+02 2.000000000000000000e+01
6.020000000000000000e+02 2.000000000000000000e+01
6.050000000000000000e+02 2.000000000000000000e+01
6.650000000000000000e+02 2.000000000000000000e+01
6.670000000000000000e+02 2.000000000000000000e+01
7.270000000000000000e+02 2.000000000000000000e+01
7.300000000000000000e+02 2.000000000000000000e+01
7.910000000000000000e+02 2.000000000000000000e+01
5.400000000000000000e+02 2.100000000000000000e+01
5.420000000000000000e+02 2.100000000000000000e+01
6.020000000000000000e+02 2.100000000000000000e+01
6.050000000000000000e+02 2.100000000000000000e+01
6.650000000000000000e+02 2.100000000000000000e+01
6.670000000000000000e+02 2.100000000000000000e+01
7.270000000000000000e+02 2.100000000000000000e+01
7.290000000000000000e+02 2.100000000000000000e+01
7.910000000000000000e+02 2.100000000000000000e+01
5.400000000000000000e+02 2.200000000000000000e+01
5.420000000000000000e+02 2.200000000000000000e+01
6.020000000000000000e+02 2.200000000000000000e+01
6.050000000000000000e+02 2.200000000000000000e+01
6.650000000000000000e+02 2.200000000000000000e+01
6.670000000000000000e+02 2.200000000000000000e+01
7.270000000000000000e+02 2.200000000000000000e+01
7.290000000000000000e+02 2.200000000000000000e+01
5.400000000000000000e+02 2.300000000000000000e+01
5.420000000000000000e+02 2.300000000000000000e+01
6.020000000000000000e+02 2.300000000000000000e+01
6.050000000000000000e+02 2.300000000000000000e+01
6.650000000000000000e+02 2.300000000000000000e+01
6.670000000000000000e+02 2.300000000000000000e+01
7.270000000000000000e+02 2.300000000000000000e+01
7.290000000000000000e+02 2.300000000000000000e+01
5.400000000000000000e+02 2.400000000000000000e+01
5.420000000000000000e+02 2.400000000000000000e+01
6.020000000000000000e+02 2.400000000000000000e+01
6.050000000000000000e+02 2.400000000000000000e+01
6.650000000000000000e+02 2.400000000000000000e+01
6.670000000000000000e+02 2.400000000000000000e+01
7.270000000000000000e+02 2.400000000000000000e+01
7.290000000000000000e+02 2.400000000000000000e+01
5.400000000000000000e+02 2.500000000000000000e+01
5.420000000000000000e+02 2.500000000000000000e+01
6.020000000000000000e+02 2.500000000000000000e+01
6.040000000000000000e+02 2.500000000000000000e+01
6.050000000000000000e+02 2.500000000000000000e+01
6.650000000000000000e+02 2.500000000000000000e+01
6.670000000000000000e+02 2.500000000000000000e+01
7.270000000000000000e+02 2.500000000000000000e+01
7.290000000000000000e+02 2.500000000000000000e+01
5.400000000000000000e+02 2.600000000000000000e+01
5.420000000000000000e+02 2.600000000000000000e+01
6.020000000000000000e+02 2.600000000000000000e+01
6.040000000000000000e+02 2.600000000000000000e+01
6.650000000000000000e+02 2.600000000000000000e+01
6.670000000000000000e+02 2.600000000000000000e+01
7.270000000000000000e+02 2.600000000000000000e+01
7.290000000000000000e+02 2.600000000000000000e+01
5.400000000000000000e+02 2.700000000000000000e+01
5.420000000000000000e+02 2.700000000000000000e+01
6.020000000000000000e+02 2.700000000000000000e+01
6.040000000000000000e+02 2.700000000000000000e+01
6.650000000000000000e+02 2.700000000000000000e+01
6.670000000000000000e+02 2.700000000000000000e+01
7.270000000000000000e+02 2.700000000000000000e+01
7.290000000000000000e+02 2.700000000000000000e+01
5.400000000000000000e+02 2.800000000000000000e+01
5.420000000000000000e+02 2.800000000000000000e+01
6.030000000000000000e+02 2.800000000000000000e+01
6.040000000000000000e+02 2.800000000000000000e+01
6.650000000000000000e+02 2.800000000000000000e+01
6.670000000000000000e+02 2.800000000000000000e+01
7.270000000000000000e+02 2.800000000000000000e+01
7.290000000000000000e+02 2.800000000000000000e+01
5.400000000000000000e+02 2.900000000000000000e+01
5.420000000000000000e+02 2.900000000000000000e+01
6.030000000000000000e+02 2.900000000000000000e+01
6.040000000000000000e+02 2.900000000000000000e+01
6.650000000000000000e+02 2.900000000000000000e+01
6.670000000000000000e+02 2.900000000000000000e+01
7.270000000000000000e+02 2.900000000000000000e+01
7.290000000000000000e+02 2.900000000000000000e+01
5.400000000000000000e+02 3.000000000000000000e+01
5.420000000000000000e+02 3.000000000000000000e+01
6.030000000000000000e+02 3.000000000000000000e+01
6.040000000000000000e+02 3.000000000000000000e+01
6.650000000000000000e+02 3.000000000000000000e+01
6.670000000000000000e+02 3.000000000000000000e+01
7.270000000000000000e+02 3.000000000000000000e+01
7.290000000000000000e+02 3.000000000000000000e+01
5.400000000000000000e+02 3.100000000000000000e+01
5.420000000000000000e+02 3.100000000000000000e+01
6.030000000000000000e+02 3.100000000000000000e+01
6.040000000000000000e+02 3.100000000000000000e+01
6.650000000000000000e+02 3.100000000000000000e+01
6.670000000000000000e+02 3.100000000000000000e+01
7.270000000000000000e+02 3.100000000000000000e+01
7.290000000000000000e+02 3.100000000000000000e+01
5.400000000000000000e+02 3.200000000000000000e+01
5.420000000000000000e+02 3.200000000000000000e+01
6.030000000000000000e+02 3.200000000000000000e+01
6.040000000000000000e+02 3.200000000000000000e+01
6.650000000000000000e+02 3.200000000000000000e+01
6.670000000000000000e+02 3.200000000000000000e+01
7.270000000000000000e+02 3.200000000000000000e+01
7.290000000000000000e+02 3.200000000000000000e+01
5.400000000000000000e+02 3.300000000000000000e+01
5.420000000000000000e+02 3.300000000000000000e+01
6.030000000000000000e+02 3.300000000000000000e+01
6.040000000000000000e+02 3.300000000000000000e+01
6.650000000000000000e+02 3.300000000000000000e+01
6.670000000000000000e+02 3.300000000000000000e+01
7.270000000000000000e+02 3.300000000000000000e+01
7.290000000000000000e+02 3.300000000000000000e+01
5.400000000000000000e+02 3.400000000000000000e+01
5.420000000000000000e+02 3.400000000000000000e+01
6.030000000000000000e+02 3.400000000000000000e+01
6.040000000000000000e+02 3.400000000000000000e+01
6.650000000000000000e+02 3.400000000000000000e+01
6.670000000000000000e+02 3.400000000000000000e+01
7.270000000000000000e+02 3.400000000000000000e+01
7.290000000000000000e+02 3.400000000000000000e+01
5.400000000000000000e+02 3.500000000000000000e+01
5.420000000000000000e+02 3.500000000000000000e+01
6.030000000000000000e+02 3.500000000000000000e+01
6.040000000000000000e+02 3.500000000000000000e+01
6.650000000000000000e+02 3.500000000000000000e+01
6.670000000000000000e+02 3.500000000000000000e+01
7.270000000000000000e+02 3.500000000000000000e+01
7.290000000000000000e+02 3.500000000000000000e+01
5.400000000000000000e+02 3.600000000000000000e+01
5.420000000000000000e+02 3.600000000000000000e+01
6.030000000000000000e+02 3.600000000000000000e+01
6.040000000000000000e+02 3.600000000000000000e+01
6.650000000000000000e+02 3.600000000000000000e+01
6.670000000000000000e+02 3.600000000000000000e+01
7.270000000000000000e+02 3.600000000000000000e+01
7.290000000000000000e+02 3.600000000000000000e+01
5.400000000000000000e+02 3.700000000000000000e+01
5.420000000000000000e+02 3.700000000000000000e+01
6.030000000000000000e+02 3.700000000000000000e+01
6.040000000000000000e+02 3.700000000000000000e+01
6.650000000000000000e+02 3.700000000000000000e+01
6.670000000000000000e+02 3.700000000000000000e+01
7.270000000000000000e+02 3.700000000000000000e+01
7.290000000000000000e+02 3.700000000000000000e+01
5.400000000000000000e+02 3.800000000000000000e+01
5.420000000000000000e+02 3.800000000000000000e+01
6.030000000000000000e+02 3.800000000000000000e+01
6.040000000000000000e+02 3.800000000000000000e+01
6.650000000000000000e+02 3.800000000000000000e+01
6.670000000000000000e+02 3.800000000000000000e+01
7.270000000000000000e+02 3.800000000000000000e+01
7.290000000000000000e+02 3.800000000000000000e+01
5.410000000000000000e+02 3.900000000000000000e+01
5.420000000000000000e+02 3.900000000000000000e+01
6.030000000000000000e+02 3.900000000000000000e+01
6.040000000000000000e+02 3.900000000000000000e+01
6.650000000000000000e+02 3.900000000000000000e+01
6.660000000000000000e+02 3.900000000000000000e+01
7.270000000000000000e+02 3.900000000000000000e+01
7.290000000000000000e+02 3.900000000000000000e+01
5.410000000000000000e+02 4.000000000000000000e+01
5.420000000000000000e+02 4.000000000000000000e+01
6.030000000000000000e+02 4.000000000000000000e+01
6.040000000000000000e+02 4.000000000000000000e+01
6.650000000000000000e+02 4.000000000000000000e+01
6.660000000000000000e+02 4.000000000000000000e+01
7.270000000000000000e+02 4.000000000000000000e+01
7.290000000000000000e+02 4.000000000000000000e+01
5.410000000000000000e+02 4.100000000000000000e+01
5.420000000000000000e+02 4.100000000000000000e+01
6.030000000000000000e+02 4.100000000000000000e+01
6.040000000000000000e+02 4.100000000000000000e+01
6.650000000000000000e+02 4.100000000000000000e+01
6.660000000000000000e+02 4.100000000000000000e+01
7.270000000000000000e+02 4.100000000000000000e+01
7.290000000000000000e+02 4.100000000000000000e+01
5.410000000000000000e+02 4.200000000000000000e+01
6.030000000000000000e+02 4.200000000000000000e+01
6.040000000000000000e+02 4.200000000000000000e+01
6.650000000000000000e+02 4.200000000000000000e+01
6.660000000000000000e+02 4.200000000000000000e+01
7.270000000000000000e+02 4.200000000000000000e+01
7.290000000000000000e+02 4.200000000000000000e+01
5.410000000000000000e+02 4.300000000000000000e+01
6.030000000000000000e+02 4.300000000000000000e+01
6.040000000000000000e+02 4.300000000000000000e+01
6.650000000000000000e+02 4.300000000000000000e+01
6.660000000000000000e+02 4.300000000000000000e+01
7.270000000000000000e+02 4.300000000000000000e+01
7.290000000000000000e+02 4.300000000000000000e+01
5.410000000000000000e+02 4.400000000000000000e+01
6.030000000000000000e+02 4.400000000000000000e+01
6.040000000000000000e+02 4.400000000000000000e+01
6.650000000000000000e+02 4.400000000000000000e+01
6.660000000000000000e+02 4.400000000000000000e+01
7.270000000000000000e+02 4.400000000000000000e+01
7.280000000000000000e+02 4.400000000000000000e+01
7.290000000000000000e+02 4.400000000000000000e+01
5.410000000000000000e+02 4.500000000000000000e+01
6.030000000000000000e+02 4.500000000000000000e+01
6.650000000000000000e+02 4.500000000000000000e+01
6.660000000000000000e+02 4.500000000000000000e+01
7.280000000000000000e+02 4.500000000000000000e+01
7.290000000000000000e+02 4.500000000000000000e+01
5.410000000000000000e+02 4.600000000000000000e+01
6.650000000000000000e+02 4.600000000000000000e+01
6.660000000000000000e+02 4.600000000000000000e+01
7.280000000000000000e+02 4.600000000000000000e+01
6.650000000000000000e+02 4.700000000000000000e+01
6.660000000000000000e+02 4.700000000000000000e+01
7.280000000000000000e+02 4.700000000000000000e+01
6.650000000000000000e+02 4.800000000000000000e+01
6.660000000000000000e+02 4.800000000000000000e+01
7.280000000000000000e+02 4.800000000000000000e+01
6.660000000000000000e+02 4.900000000000000000e+01
7.280000000000000000e+02 4.900000000000000000e+01
6.660000000000000000e+02 5.000000000000000000e+01
