1.760000000000000000e+02 0.000000000000000000e+00
1.770000000000000000e+02 0.000000000000000000e+00
1.760000000000000000e+02 1.000000000000000000e+00
1.770000000000000000e+02 1.000000000000000000e+00
1.760000000000000000e+02 2.000000000000000000e+00
1.770000000000000000e+02 2.000000000000000000e+00
1.770000000000000000e+02 3.000000000000000000e+00
1.770000000000000000e+02 4.000000000000000000e+00
1.770000000000000000e+02 5.000000000000000000e+00
1.770000000000000000e+02 6.000000000000000000e+00
1.770000000000000000e+02 7.000000000000000000e+00
1.770000000000000000e+02 8.000000000000000000e+00
1.770000000000000000e+02 9.000000000000000000e+00
1.770000000000000000e+02 1.000000000000000000e+01
1.770000000000000000e+02 1.100000000000000000e+01
1.770000000000000000e+02 1.200000000000000000e+01
7.500000000000000000e+01 8.200000000000000000e+01
7.500000000000000000e+01 8.300000000000000000e+01
7.500000000000000000e+01 8.400000000000000000e+01
7.500000000000000000e+01 8.500000000000000000e+01
7.600000000000000000e+01 8.500000000000000000e+01
7.500000000000000000e+01 8.600000000000000000e+01
7.600000000000000000e+01 8.600000000000000000e+01
7.500000000000000000e+01 8.700000000000000000e+01
7.600000000000000000e+01 8.700000000000000000e+01
4.300000000000000000e+01 8.800000000000000000e+01
7.500000000000000000e+01 8.800000000000000000e+01
7.600000000000000000e+01 8.800000000000000000e+01
4.300000000000000000e+01 8.900000000000000000e+01
5.300000000000000000e+01 8.900000000000000000e+01
7.400000000000000000e+01 8.900000000000000000e+01
7.600000000000000000e+01 8.900000000000000000e+01
4.300000000000000000e+01 9.000000000000000000e+01
4.400000000000000000e+01 9.000000000000000000e+01
5.200000000000000000e+01 9.000000000000000000e+01
5.300000000000000000e+01 9.000000000000000000e+01
7.400000000000000000e+01 9.000000000000000000e+01
7.600000000000000000e+01 9.000000000000000000e+01
1.210000000000000000e+02 9.000000000000000000e+01
1.220000000000000000e+02 9.000000000000000000e+01
1.320000000000000000e+02 9.000000000000000000e+01
1.330000000000000000e+02 9.000000000000000000e+01
1.360000000000000000e+02 9.000000000000000000e+01
1.370000000000000000e+02 9.000000000000000000e+01
1.380000000000000000e+02 9.000000000000000000e+01
1.390000000000000000e+02 9.000000000000000000e+01
1.400000000000000000e+02 9.000000000000000000e+01
4.200000000000000000e+01 9.100000000000000000e+01
4.300000000000000000e+01 9.100000000000000000e+01
4.400000000000000000e+01 9.100000000000000000e+01
5.200000000000000000e+01 9.100000000000000000e+01
5.300000000000000000e+01 9.100000000000000000e+01
7.400000000000000000e+01 9.100000000000000000e+01
7.600000000000000000e+01 9.100000000000000000e+01
1.210000000000000000e+02 9.100000000000000000e+01
1.220000000000000000e+02 9.100000000000000000e+01
1.320000000000000000e+02 9.100000000000000000e+01
1.330000000000000000e+02 9.100000000000000000e+01
1.350000000000000000e+02 9.100000000000000000e+01
1.360000000000000000e+02 9.100000000000000000e+01
1.370000000000000000e+02 9.100000000000000000e+01
1.380000000000000000e+02 9.100000000000000000e+01
1.390000000000000000e+02 9.100000000000000000e+01
1.400000000000000000e+02 9.100000000000000000e+01
1.410000000000000000e+02 9.100000000000000000e+01
4.200000000000000000e+01 9.200000000000000000e+01
4.300000000000000000e+01 9.200000000000000000e+01
4.400000000000000000e+01 9.200000000000000000e+01
5.200000000000000000e+01 9.200000000000000000e+01
5.300000000000000000e+01 9.200000000000000000e+01
7.400000000000000000e+01 9.200000000000000000e+01
7.600000000000000000e+01 9.200000000000000000e+01
1.220000000000000000e+02 9.200000000000000000e+01
1.230000000000000000e+02 9.200000000000000000e+01
1.310000000000000000e+02 9.200000000000000000e+01
1.320000000000000000e+02 9.200000000000000000e+01
1.340000000000000000e+02 9.200000000000000000e+01
1.350000000000000000e+02 9.200000000000000000e+01
1.360000000000000000e+02 9.200000000000000000e+01
1.400000000000000000e+02 9.200000000000000000e+01
1.410000000000000000e+02 9.200000000000000000e+01
1.420000000000000000e+02 9.200000000000000000e+01
4.200000000000000000e+01 9.300000000000000000e+01
4.300000000000000000e+01 9.300000000000000000e+01
4.400000000000000000e+01 9.300000000000000000e+01
5.200000000000000000e+01 9.300000000000000000e+01
5.300000000000000000e+01 9.300000000000000000e+01
7.400000000000000000e+01 9.300000000000000000e+01
7.600000000000000000e+01 9.300000000000000000e+01
1.220000000000000000e+02 9.300000000000000000e+01
1.230000000000000000e+02 9.300000000000000000e+01
1.310000000000000000e+02 9.300000000000000000e+01
1.320000000000000000e+02 9.300000000000000000e+01
1.340000000000000000e+02 9.300000000000000000e+01
1.350000000000000000e+02 9.300000000000000000e+01
1.410000000000000000e+02 9.300000000000000000e+01
1.420000000000000000e+02 9.300000000000000000e+01
3.800000000000000000e+01 9.400000000000000000e+01
4.000000000000000000e+01 9.400000000000000000e+01
4.200000000000000000e+01 9.400000000000000000e+01
4.300000000000000000e+01 9.400000000000000000e+01
4.400000000000000000e+01 9.400000000000000000e+01
4.900000000000000000e+01 9.400000000000000000e+01
5.200000000000000000e+01 9.400000000000000000e+01
5.300000000000000000e+01 9.400000000000000000e+01
7.400000000000000000e+01 9.400000000000000000e+01
7.600000000000000000e+01 9.400000000000000000e+01
1.220000000000000000e+02 9.400000000000000000e+01
1.230000000000000000e+02 9.400000000000000000e+01
1.310000000000000000e+02 9.400000000000000000e+01
1.320000000000000000e+02 9.400000000000000000e+01
1.410000000000000000e+02 9.400000000000000000e+01
1.420000000000000000e+02 9.400000000000000000e+01
3.400000000000000000e+01 9.500000000000000000e+01
3.800000000000000000e+01 9.500000000000000000e+01
4.000000000000000000e+01 9.500000000000000000e+01
4.100000000000000000e+01 9.500000000000000000e+01
4.200000000000000000e+01 9.500000000000000000e+01
4.300000000000000000e+01 9.500000000000000000e+01
4.400000000000000000e+01 9.500000000000000000e+01
4.700000000000000000e+01 9.500000000000000000e+01
4.900000000000000000e+01 9.500000000000000000e+01
5.200000000000000000e+01 9.500000000000000000e+01
5.300000000000000000e+01 9.500000000000000000e+01
7.400000000000000000e+01 9.500000000000000000e+01
7.600000000000000000e+01 9.500000000000000000e+01
1.230000000000000000e+02 9.500000000000000000e+01
1.240000000000000000e+02 9.500000000000000000e+01
1.300000000000000000e+02 9.500000000000000000e+01
1.310000000000000000e+02 9.500000000000000000e+01
1.410000000000000000e+02 9.500000000000000000e+01
1.420000000000000000e+02 9.500000000000000000e+01
3.400000000000000000e+01 9.600000000000000000e+01
3.500000000000000000e+01 9.600000000000000000e+01
3.700000000000000000e+01 9.600000000000000000e+01
3.800000000000000000e+01 9.600000000000000000e+01
3.900000000000000000e+01 9.600000000000000000e+01
4.000000000000000000e+01 9.600000000000000000e+01
4.100000000000000000e+01 9.600000000000000000e+01
4.200000000000000000e+01 9.600000000000000000e+01
4.300000000000000000e+01 9.600000000000000000e+01
4.400000000000000000e+01 9.600000000000000000e+01
4.600000000000000000e+01 9.600000000000000000e+01
4.700000000000000000e+01 9.600000000000000000e+01
4.900000000000000000e+01 9.600000000000000000e+01
5.200000000000000000e+01 9.600000000000000000e+01
5.300000000000000000e+01 9.600000000000000000e+01
7.400000000000000000e+01 9.600000000000000000e+01
7.600000000000000000e+01 9.600000000000000000e+01
1.230000000000000000e+02 9.600000000000000000e+01
1.240000000000000000e+02 9.600000000000000000e+01
1.300000000000000000e+02 9.600000000000000000e+01
1.310000000000000000e+02 9.600000000000000000e+01
1.400000000000000000e+02 9.600000000000000000e+01
1.410000000000000000e+02 9.600000000000000000e+01
3.400000000000000000e+01 9.700000000000000000e+01
3.500000000000000000e+01 9.700000000000000000e+01
3.700000000000000000e+01 9.700000000000000000e+01
3.800000000000000000e+01 9.700000000000000000e+01
3.900000000000000000e+01 9.700000000000000000e+01
4.000000000000000000e+01 9.700000000000000000e+01
4.100000000000000000e+01 9.700000000000000000e+01
4.200000000000000000e+01 9.700000000000000000e+01
4.300000000000000000e+01 9.700000000000000000e+01
4.400000000000000000e+01 9.700000000000000000e+01
4.600000000000000000e+01 9.700000000000000000e+01
4.700000000000000000e+01 9.700000000000000000e+01
4.900000000000000000e+01 9.700000000000000000e+01
5.200000000000000000e+01 9.700000000000000000e+01
5.300000000000000000e+01 9.700000000000000000e+01
6.200000000000000000e+01 9.700000000000000000e+01
7.400000000000000000e+01 9.700000000000000000e+01
7.600000000000000000e+01 9.700000000000000000e+01
7.700000000000000000e+01 9.700000000000000000e+01
1.240000000000000000e+02 9.700000000000000000e+01
1.250000000000000000e+02 9.700000000000000000e+01
1.290000000000000000e+02 9.700000000000000000e+01
1.300000000000000000e+02 9.700000000000000000e+01
1.390000000000000000e+02 9.700000000000000000e+01
1.400000000000000000e+02 9.700000000000000000e+01
3.400000000000000000e+01 9.800000000000000000e+01
3.500000000000000000e+01 9.800000000000000000e+01
3.700000000000000000e+01 9.800000000000000000e+01
3.800000000000000000e+01 9.800000000000000000e+01
3.900000000000000000e+01 9.800000000000000000e+01
4.000000000000000000e+01 9.800000000000000000e+01
4.100000000000000000e+01 9.800000000000000000e+01
4.200000000000000000e+01 9.800000000000000000e+01
4.300000000000000000e+01 9.800000000000000000e+01
4.400000000000000000e+01 9.800000000000000000e+01
4.600000000000000000e+01 9.800000000000000000e+01
4.700000000000000000e+01 9.800000000000000000e+01
4.900000000000000000e+01 9.800000000000000000e+01
5.100000000000000000e+01 9.800000000000000000e+01
5.200000000000000000e+01 9.800000000000000000e+01
5.300000000000000000e+01 9.800000000000000000e+01
6.200000000000000000e+01 9.800000000000000000e+01
6.300000000000000000e+01 9.800000000000000000e+01
7.400000000000000000e+01 9.800000000000000000e+01
7.600000000000000000e+01 9.800000000000000000e+01
7.700000000000000000e+01 9.800000000000000000e+01
1.240000000000000000e+02 9.800000000000000000e+01
1.250000000000000000e+02 9.800000000000000000e+01
1.290000000000000000e+02 9.800000000000000000e+01
1.300000000000000000e+02 9.800000000000000000e+01
1.380000000000000000e+02 9.800000000000000000e+01
1.390000000000000000e+02 9.800000000000000000e+01
