1.040000000000000000e+02 7.800000000000000000e+01
1.050000000000000000e+02 7.800000000000000000e+01
1.130000000000000000e+02 7.800000000000000000e+01
1.140000000000000000e+02 7.800000000000000000e+01
1.190000000000000000e+02 7.800000000000000000e+01
1.200000000000000000e+02 7.800000000000000000e+01
1.210000000000000000e+02 7.800000000000000000e+01
1.220000000000000000e+02 7.800000000000000000e+01
1.040000000000000000e+02 7.900000000000000000e+01
1.050000000000000000e+02 7.900000000000000000e+01
1.130000000000000000e+02 7.900000000000000000e+01
1.140000000000000000e+02 7.900000000000000000e+01
1.180000000000000000e+02 7.900000000000000000e+01
1.190000000000000000e+02 7.900000000000000000e+01
1.200000000000000000e+02 7.900000000000000000e+01
1.210000000000000000e+02 7.900000000000000000e+01
1.220000000000000000e+02 7.900000000000000000e+01
1.230000000000000000e+02 7.900000000000000000e+01
1.050000000000000000e+02 8.000000000000000000e+01
1.060000000000000000e+02 8.000000000000000000e+01
1.120000000000000000e+02 8.000000000000000000e+01
1.130000000000000000e+02 8.000000000000000000e+01
1.170000000000000000e+02 8.000000000000000000e+01
1.180000000000000000e+02 8.000000000000000000e+01
1.190000000000000000e+02 8.000000000000000000e+01
1.220000000000000000e+02 8.000000000000000000e+01
1.230000000000000000e+02 8.000000000000000000e+01
1.240000000000000000e+02 8.000000000000000000e+01
4.000000000000000000e+01 8.100000000000000000e+01
4.100000000000000000e+01 8.100000000000000000e+01
1.050000000000000000e+02 8.100000000000000000e+01
1.060000000000000000e+02 8.100000000000000000e+01
1.120000000000000000e+02 8.100000000000000000e+01
1.130000000000000000e+02 8.100000000000000000e+01
1.170000000000000000e+02 8.100000000000000000e+01
1.180000000000000000e+02 8.100000000000000000e+01
1.230000000000000000e+02 8.100000000000000000e+01
1.240000000000000000e+02 8.100000000000000000e+01
4.000000000000000000e+01 8.200000000000000000e+01
4.100000000000000000e+01 8.200000000000000000e+01
9.400000000000000000e+01 8.200000000000000000e+01
1.050000000000000000e+02 8.200000000000000000e+01
1.060000000000000000e+02 8.200000000000000000e+01
1.120000000000000000e+02 8.200000000000000000e+01
1.130000000000000000e+02 8.200000000000000000e+01
1.230000000000000000e+02 8.200000000000000000e+01
1.240000000000000000e+02 8.200000000000000000e+01
4.000000000000000000e+01 8.300000000000000000e+01
4.100000000000000000e+01 8.300000000000000000e+01
9.400000000000000000e+01 8.300000000000000000e+01
1.060000000000000000e+02 8.300000000000000000e+01
1.070000000000000000e+02 8.300000000000000000e+01
1.110000000000000000e+02 8.300000000000000000e+01
1.120000000000000000e+02 8.300000000000000000e+01
1.230000000000000000e+02 8.300000000000000000e+01
1.240000000000000000e+02 8.300000000000000000e+01
4.000000000000000000e+01 8.400000000000000000e+01
4.100000000000000000e+01 8.400000000000000000e+01
9.400000000000000000e+01 8.400000000000000000e+01
1.060000000000000000e+02 8.400000000000000000e+01
1.070000000000000000e+02 8.400000000000000000e+01
1.110000000000000000e+02 8.400000000000000000e+01
1.120000000000000000e+02 8.400000000000000000e+01
1.220000000000000000e+02 8.400000000000000000e+01
1.230000000000000000e+02 8.400000000000000000e+01
4.000000000000000000e+01 8.500000000000000000e+01
4.100000000000000000e+01 8.500000000000000000e+01
9.300000000000000000e+01 8.500000000000000000e+01
9.400000000000000000e+01 8.500000000000000000e+01
9.500000000000000000e+01 8.500000000000000000e+01
1.060000000000000000e+02 8.500000000000000000e+01
1.070000000000000000e+02 8.500000000000000000e+01
1.110000000000000000e+02 8.500000000000000000e+01
1.120000000000000000e+02 8.500000000000000000e+01
1.210000000000000000e+02 8.500000000000000000e+01
1.220000000000000000e+02 8.500000000000000000e+01
4.000000000000000000e+01 8.600000000000000000e+01
4.100000000000000000e+01 8.600000000000000000e+01
9.300000000000000000e+01 8.600000000000000000e+01
9.500000000000000000e+01 8.600000000000000000e+01
1.070000000000000000e+02 8.600000000000000000e+01
1.080000000000000000e+02 8.600000000000000000e+01
1.100000000000000000e+02 8.600000000000000000e+01
1.110000000000000000e+02 8.600000000000000000e+01
1.200000000000000000e+02 8.600000000000000000e+01
1.210000000000000000e+02 8.600000000000000000e+01
4.000000000000000000e+01 8.700000000000000000e+01
4.100000000000000000e+01 8.700000000000000000e+01
9.300000000000000000e+01 8.700000000000000000e+01
9.500000000000000000e+01 8.700000000000000000e+01
1.070000000000000000e+02 8.700000000000000000e+01
1.080000000000000000e+02 8.700000000000000000e+01
1.100000000000000000e+02 8.700000000000000000e+01
1.110000000000000000e+02 8.700000000000000000e+01
1.190000000000000000e+02 8.700000000000000000e+01
1.200000000000000000e+02 8.700000000000000000e+01
3.900000000000000000e+01 8.800000000000000000e+01
4.100000000000000000e+01 8.800000000000000000e+01
9.300000000000000000e+01 8.800000000000000000e+01
9.500000000000000000e+01 8.800000000000000000e+01
1.070000000000000000e+02 8.800000000000000000e+01
1.080000000000000000e+02 8.800000000000000000e+01
1.100000000000000000e+02 8.800000000000000000e+01
1.110000000000000000e+02 8.800000000000000000e+01
1.180000000000000000e+02 8.800000000000000000e+01
1.190000000000000000e+02 8.800000000000000000e+01
3.900000000000000000e+01 8.900000000000000000e+01
4.100000000000000000e+01 8.900000000000000000e+01
9.300000000000000000e+01 8.900000000000000000e+01
9.500000000000000000e+01 8.900000000000000000e+01
1.080000000000000000e+02 8.900000000000000000e+01
1.090000000000000000e+02 8.900000000000000000e+01
1.100000000000000000e+02 8.900000000000000000e+01
1.170000000000000000e+02 8.900000000000000000e+01
1.180000000000000000e+02 8.900000000000000000e+01
1.190000000000000000e+02 8.900000000000000000e+01
1.200000000000000000e+02 8.900000000000000000e+01
1.210000000000000000e+02 8.900000000000000000e+01
1.220000000000000000e+02 8.900000000000000000e+01
1.230000000000000000e+02 8.900000000000000000e+01
1.240000000000000000e+02 8.900000000000000000e+01
3.900000000000000000e+01 9.000000000000000000e+01
4.100000000000000000e+01 9.000000000000000000e+01
9.300000000000000000e+01 9.000000000000000000e+01
9.500000000000000000e+01 9.000000000000000000e+01
1.080000000000000000e+02 9.000000000000000000e+01
1.090000000000000000e+02 9.000000000000000000e+01
1.100000000000000000e+02 9.000000000000000000e+01
1.170000000000000000e+02 9.000000000000000000e+01
1.180000000000000000e+02 9.000000000000000000e+01
1.190000000000000000e+02 9.000000000000000000e+01
1.200000000000000000e+02 9.000000000000000000e+01
1.210000000000000000e+02 9.000000000000000000e+01
1.220000000000000000e+02 9.000000000000000000e+01
1.230000000000000000e+02 9.000000000000000000e+01
1.240000000000000000e+02 9.000000000000000000e+01
3.900000000000000000e+01 9.100000000000000000e+01
4.100000000000000000e+01 9.100000000000000000e+01
9.300000000000000000e+01 9.100000000000000000e+01
9.500000000000000000e+01 9.100000000000000000e+01
3.900000000000000000e+01 9.200000000000000000e+01
4.100000000000000000e+01 9.200000000000000000e+01
9.200000000000000000e+01 9.200000000000000000e+01
9.300000000000000000e+01 9.200000000000000000e+01
9.500000000000000000e+01 9.200000000000000000e+01
1.620000000000000000e+02 9.200000000000000000e+01
3.900000000000000000e+01 9.300000000000000000e+01
4.100000000000000000e+01 9.300000000000000000e+01
9.200000000000000000e+01 9.300000000000000000e+01
9.500000000000000000e+01 9.300000000000000000e+01
1.600000000000000000e+02 9.300000000000000000e+01
1.610000000000000000e+02 9.300000000000000000e+01
1.620000000000000000e+02 9.300000000000000000e+01
1.630000000000000000e+02 9.300000000000000000e+01
1.640000000000000000e+02 9.300000000000000000e+01
1.650000000000000000e+02 9.300000000000000000e+01
3.800000000000000000e+01 9.400000000000000000e+01
3.900000000000000000e+01 9.400000000000000000e+01
4.100000000000000000e+01 9.400000000000000000e+01
9.200000000000000000e+01 9.400000000000000000e+01
9.500000000000000000e+01 9.400000000000000000e+01
1.080000000000000000e+02 9.400000000000000000e+01
1.090000000000000000e+02 9.400000000000000000e+01
1.100000000000000000e+02 9.400000000000000000e+01
1.110000000000000000e+02 9.400000000000000000e+01
1.590000000000000000e+02 9.400000000000000000e+01
1.600000000000000000e+02 9.400000000000000000e+01
1.610000000000000000e+02 9.400000000000000000e+01
1.620000000000000000e+02 9.400000000000000000e+01
1.640000000000000000e+02 9.400000000000000000e+01
1.650000000000000000e+02 9.400000000000000000e+01
3.800000000000000000e+01 9.500000000000000000e+01
4.100000000000000000e+01 9.500000000000000000e+01
4.200000000000000000e+01 9.500000000000000000e+01
9.200000000000000000e+01 9.500000000000000000e+01
9.500000000000000000e+01 9.500000000000000000e+01
1.030000000000000000e+02 9.500000000000000000e+01
1.060000000000000000e+02 9.500000000000000000e+01
1.070000000000000000e+02 9.500000000000000000e+01
1.080000000000000000e+02 9.500000000000000000e+01
1.100000000000000000e+02 9.500000000000000000e+01
1.110000000000000000e+02 9.500000000000000000e+01
1.120000000000000000e+02 9.500000000000000000e+01
1.540000000000000000e+02 9.500000000000000000e+01
1.560000000000000000e+02 9.500000000000000000e+01
1.570000000000000000e+02 9.500000000000000000e+01
1.580000000000000000e+02 9.500000000000000000e+01
1.590000000000000000e+02 9.500000000000000000e+01
1.600000000000000000e+02 9.500000000000000000e+01
1.610000000000000000e+02 9.500000000000000000e+01
1.650000000000000000e+02 9.500000000000000000e+01
1.660000000000000000e+02 9.500000000000000000e+01
3.800000000000000000e+01 9.600000000000000000e+01
4.200000000000000000e+01 9.600000000000000000e+01
9.100000000000000000e+01 9.600000000000000000e+01
9.200000000000000000e+01 9.600000000000000000e+01
9.500000000000000000e+01 9.600000000000000000e+01
1.020000000000000000e+02 9.600000000000000000e+01
1.030000000000000000e+02 9.600000000000000000e+01
1.040000000000000000e+02 9.600000000000000000e+01
1.050000000000000000e+02 9.600000000000000000e+01
1.060000000000000000e+02 9.600000000000000000e+01
1.120000000000000000e+02 9.600000000000000000e+01
1.130000000000000000e+02 9.600000000000000000e+01
1.520000000000000000e+02 9.600000000000000000e+01
1.540000000000000000e+02 9.600000000000000000e+01
1.550000000000000000e+02 9.600000000000000000e+01
1.560000000000000000e+02 9.600000000000000000e+01
1.570000000000000000e+02 9.600000000000000000e+01
1.580000000000000000e+02 9.600000000000000000e+01
1.590000000000000000e+02 9.600000000000000000e+01
1.660000000000000000e+02 9.600000000000000000e+01
1.670000000000000000e+02 9.600000000000000000e+01
3.800000000000000000e+01 9.700000000000000000e+01
4.200000000000000000e+01 9.700000000000000000e+01
9.100000000000000000e+01 9.700000000000000000e+01
9.500000000000000000e+01 9.700000000000000000e+01
9.600000000000000000e+01 9.700000000000000000e+01
1.000000000000000000e+02 9.700000000000000000e+01
1.010000000000000000e+02 9.700000000000000000e+01
1.020000000000000000e+02 9.700000000000000000e+01
1.040000000000000000e+02 9.700000000000000000e+01
1.120000000000000000e+02 9.700000000000000000e+01
1.130000000000000000e+02 9.700000000000000000e+01
1.520000000000000000e+02 9.700000000000000000e+01
1.530000000000000000e+02 9.700000000000000000e+01
1.540000000000000000e+02 9.700000000000000000e+01
1.550000000000000000e+02 9.700000000000000000e+01
1.560000000000000000e+02 9.700000000000000000e+01
1.670000000000000000e+02 9.700000000000000000e+01
3.200000000000000000e+01 9.800000000000000000e+01
3.300000000000000000e+01 9.800000000000000000e+01
3.400000000000000000e+01 9.800000000000000000e+01
3.700000000000000000e+01 9.800000000000000000e+01
3.800000000000000000e+01 9.800000000000000000e+01
4.200000000000000000e+01 9.800000000000000000e+01
7.100000000000000000e+01 9.800000000000000000e+01
8.600000000000000000e+01 9.800000000000000000e+01
8.700000000000000000e+01 9.800000000000000000e+01
8.800000000000000000e+01 9.800000000000000000e+01
9.100000000000000000e+01 9.800000000000000000e+01
9.600000000000000000e+01 9.800000000000000000e+01
9.800000000000000000e+01 9.800000000000000000e+01
9.900000000000000000e+01 9.800000000000000000e+01
1.000000000000000000e+02 9.800000000000000000e+01
1.020000000000000000e+02 9.800000000000000000e+01
1.130000000000000000e+02 9.800000000000000000e+01
1.140000000000000000e+02 9.800000000000000000e+01
1.510000000000000000e+02 9.800000000000000000e+01
1.520000000000000000e+02 9.800000000000000000e+01
1.530000000000000000e+02 9.800000000000000000e+01
1.670000000000000000e+02 9.800000000000000000e+01
