2.700000000000000000e+01 0.000000000000000000e+00
8.900000000000000000e+01 0.000000000000000000e+00
1.500000000000000000e+02 0.000000000000000000e+00
1.520000000000000000e+02 0.000000000000000000e+00
2.120000000000000000e+02 0.000000000000000000e+00
2.140000000000000000e+02 0.000000000000000000e+00
2.320000000000000000e+02 0.000000000000000000e+00
2.330000000000000000e+02 0.000000000000000000e+00
2.340000000000000000e+02 0.000000000000000000e+00
2.360000000000000000e+02 0.000000000000000000e+00
2.940000000000000000e+02 0.000000000000000000e+00
2.960000000000000000e+02 0.000000000000000000e+00
5.180000000000000000e+02 0.000000000000000000e+00
5.810000000000000000e+02 0.000000000000000000e+00
5.860000000000000000e+02 0.000000000000000000e+00
6.430000000000000000e+02 0.000000000000000000e+00
7.060000000000000000e+02 0.000000000000000000e+00
7.110000000000000000e+02 0.000000000000000000e+00
7.730000000000000000e+02 0.000000000000000000e+00
7.760000000000000000e+02 0.000000000000000000e+00
2.700000000000000000e+01 1.000000000000000000e+00
2.900000000000000000e+01 1.000000000000000000e+00
9.100000000000000000e+01 1.000000000000000000e+00
1.510000000000000000e+02 1.000000000000000000e+00
1.520000000000000000e+02 1.000000000000000000e+00
2.120000000000000000e+02 1.000000000000000000e+00
2.140000000000000000e+02 1.000000000000000000e+00
2.360000000000000000e+02 1.000000000000000000e+00
5.230000000000000000e+02 1.000000000000000000e+00
5.810000000000000000e+02 1.000000000000000000e+00
5.860000000000000000e+02 1.000000000000000000e+00
6.430000000000000000e+02 1.000000000000000000e+00
6.480000000000000000e+02 1.000000000000000000e+00
7.060000000000000000e+02 1.000000000000000000e+00
7.110000000000000000e+02 1.000000000000000000e+00
7.730000000000000000e+02 1.000000000000000000e+00
7.760000000000000000e+02 1.000000000000000000e+00
2.700000000000000000e+01 2.000000000000000000e+00
2.800000000000000000e+01 2.000000000000000000e+00
2.900000000000000000e+01 2.000000000000000000e+00
8.900000000000000000e+01 2.000000000000000000e+00
9.100000000000000000e+01 2.000000000000000000e+00
1.510000000000000000e+02 2.000000000000000000e+00
2.120000000000000000e+02 2.000000000000000000e+00
5.180000000000000000e+02 2.000000000000000000e+00
5.230000000000000000e+02 2.000000000000000000e+00
5.810000000000000000e+02 2.000000000000000000e+00
5.850000000000000000e+02 2.000000000000000000e+00
6.430000000000000000e+02 2.000000000000000000e+00
6.480000000000000000e+02 2.000000000000000000e+00
7.060000000000000000e+02 2.000000000000000000e+00
7.110000000000000000e+02 2.000000000000000000e+00
7.730000000000000000e+02 2.000000000000000000e+00
7.760000000000000000e+02 2.000000000000000000e+00
2.700000000000000000e+01 3.000000000000000000e+00
2.800000000000000000e+01 3.000000000000000000e+00
8.900000000000000000e+01 3.000000000000000000e+00
9.100000000000000000e+01 3.000000000000000000e+00
1.500000000000000000e+02 3.000000000000000000e+00
1.510000000000000000e+02 3.000000000000000000e+00
2.120000000000000000e+02 3.000000000000000000e+00
5.180000000000000000e+02 3.000000000000000000e+00
5.230000000000000000e+02 3.000000000000000000e+00
5.810000000000000000e+02 3.000000000000000000e+00
6.430000000000000000e+02 3.000000000000000000e+00
6.480000000000000000e+02 3.000000000000000000e+00
7.060000000000000000e+02 3.000000000000000000e+00
7.110000000000000000e+02 3.000000000000000000e+00
7.760000000000000000e+02 3.000000000000000000e+00
2.700000000000000000e+01 4.000000000000000000e+00
2.800000000000000000e+01 4.000000000000000000e+00
8.900000000000000000e+01 4.000000000000000000e+00
9.100000000000000000e+01 4.000000000000000000e+00
1.500000000000000000e+02 4.000000000000000000e+00
1.510000000000000000e+02 4.000000000000000000e+00
2.120000000000000000e+02 4.000000000000000000e+00
2.130000000000000000e+02 4.000000000000000000e+00
5.190000000000000000e+02 4.000000000000000000e+00
5.230000000000000000e+02 4.000000000000000000e+00
5.810000000000000000e+02 4.000000000000000000e+00
5.850000000000000000e+02 4.000000000000000000e+00
6.430000000000000000e+02 4.000000000000000000e+00
6.480000000000000000e+02 4.000000000000000000e+00
7.060000000000000000e+02 4.000000000000000000e+00
7.110000000000000000e+02 4.000000000000000000e+00
7.730000000000000000e+02 4.000000000000000000e+00
7.760000000000000000e+02 4.000000000000000000e+00
2.700000000000000000e+01 5.000000000000000000e+00
2.800000000000000000e+01 5.000000000000000000e+00
8.900000000000000000e+01 5.000000000000000000e+00
1.500000000000000000e+02 5.000000000000000000e+00
1.510000000000000000e+02 5.000000000000000000e+00
2.120000000000000000e+02 5.000000000000000000e+00
2.130000000000000000e+02 5.000000000000000000e+00
5.190000000000000000e+02 5.000000000000000000e+00
5.230000000000000000e+02 5.000000000000000000e+00
5.810000000000000000e+02 5.000000000000000000e+00
5.850000000000000000e+02 5.000000000000000000e+00
6.430000000000000000e+02 5.000000000000000000e+00
7.060000000000000000e+02 5.000000000000000000e+00
7.110000000000000000e+02 5.000000000000000000e+00
7.730000000000000000e+02 5.000000000000000000e+00
2.700000000000000000e+01 6.000000000000000000e+00
9.000000000000000000e+01 6.000000000000000000e+00
1.500000000000000000e+02 6.000000000000000000e+00
2.120000000000000000e+02 6.000000000000000000e+00
2.130000000000000000e+02 6.000000000000000000e+00
5.190000000000000000e+02 6.000000000000000000e+00
5.230000000000000000e+02 6.000000000000000000e+00
5.810000000000000000e+02 6.000000000000000000e+00
5.850000000000000000e+02 6.000000000000000000e+00
6.430000000000000000e+02 6.000000000000000000e+00
6.470000000000000000e+02 6.000000000000000000e+00
7.060000000000000000e+02 6.000000000000000000e+00
7.070000000000000000e+02 6.000000000000000000e+00
7.110000000000000000e+02 6.000000000000000000e+00
7.730000000000000000e+02 6.000000000000000000e+00
7.760000000000000000e+02 6.000000000000000000e+00
2.700000000000000000e+01 7.000000000000000000e+00
2.800000000000000000e+01 7.000000000000000000e+00
8.900000000000000000e+01 7.000000000000000000e+00
9.000000000000000000e+01 7.000000000000000000e+00
1.500000000000000000e+02 7.000000000000000000e+00
1.510000000000000000e+02 7.000000000000000000e+00
2.120000000000000000e+02 7.000000000000000000e+00
2.130000000000000000e+02 7.000000000000000000e+00
5.230000000000000000e+02 7.000000000000000000e+00
5.810000000000000000e+02 7.000000000000000000e+00
5.850000000000000000e+02 7.000000000000000000e+00
6.440000000000000000e+02 7.000000000000000000e+00
6.460000000000000000e+02 7.000000000000000000e+00
6.470000000000000000e+02 7.000000000000000000e+00
7.110000000000000000e+02 7.000000000000000000e+00
7.730000000000000000e+02 7.000000000000000000e+00
2.700000000000000000e+01 8.000000000000000000e+00
2.800000000000000000e+01 8.000000000000000000e+00
1.500000000000000000e+02 8.000000000000000000e+00
1.510000000000000000e+02 8.000000000000000000e+00
2.130000000000000000e+02 8.000000000000000000e+00
5.190000000000000000e+02 8.000000000000000000e+00
5.230000000000000000e+02 8.000000000000000000e+00
5.810000000000000000e+02 8.000000000000000000e+00
5.850000000000000000e+02 8.000000000000000000e+00
6.440000000000000000e+02 8.000000000000000000e+00
6.460000000000000000e+02 8.000000000000000000e+00
7.070000000000000000e+02 8.000000000000000000e+00
7.100000000000000000e+02 8.000000000000000000e+00
7.730000000000000000e+02 8.000000000000000000e+00
7.750000000000000000e+02 8.000000000000000000e+00
7.760000000000000000e+02 8.000000000000000000e+00
2.800000000000000000e+01 9.000000000000000000e+00
8.900000000000000000e+01 9.000000000000000000e+00
9.000000000000000000e+01 9.000000000000000000e+00
1.500000000000000000e+02 9.000000000000000000e+00
1.510000000000000000e+02 9.000000000000000000e+00
2.120000000000000000e+02 9.000000000000000000e+00
5.190000000000000000e+02 9.000000000000000000e+00
5.810000000000000000e+02 9.000000000000000000e+00
6.440000000000000000e+02 9.000000000000000000e+00
6.460000000000000000e+02 9.000000000000000000e+00
7.070000000000000000e+02 9.000000000000000000e+00
7.100000000000000000e+02 9.000000000000000000e+00
7.730000000000000000e+02 9.000000000000000000e+00
7.740000000000000000e+02 9.000000000000000000e+00
7.750000000000000000e+02 9.000000000000000000e+00
1.500000000000000000e+02 1.000000000000000000e+01
5.190000000000000000e+02 1.000000000000000000e+01
5.230000000000000000e+02 1.000000000000000000e+01
5.840000000000000000e+02 1.000000000000000000e+01
6.440000000000000000e+02 1.000000000000000000e+01
6.460000000000000000e+02 1.000000000000000000e+01
7.070000000000000000e+02 1.000000000000000000e+01
7.740000000000000000e+02 1.000000000000000000e+01
7.750000000000000000e+02 1.000000000000000000e+01
9.000000000000000000e+01 1.100000000000000000e+01
5.190000000000000000e+02 1.100000000000000000e+01
5.230000000000000000e+02 1.100000000000000000e+01
5.810000000000000000e+02 1.100000000000000000e+01
5.820000000000000000e+02 1.100000000000000000e+01
5.840000000000000000e+02 1.100000000000000000e+01
6.440000000000000000e+02 1.100000000000000000e+01
6.460000000000000000e+02 1.100000000000000000e+01
7.070000000000000000e+02 1.100000000000000000e+01
7.100000000000000000e+02 1.100000000000000000e+01
7.740000000000000000e+02 1.100000000000000000e+01
7.750000000000000000e+02 1.100000000000000000e+01
9.000000000000000000e+01 1.200000000000000000e+01
5.190000000000000000e+02 1.200000000000000000e+01
5.220000000000000000e+02 1.200000000000000000e+01
5.230000000000000000e+02 1.200000000000000000e+01
5.820000000000000000e+02 1.200000000000000000e+01
5.840000000000000000e+02 1.200000000000000000e+01
6.440000000000000000e+02 1.200000000000000000e+01
6.460000000000000000e+02 1.200000000000000000e+01
7.100000000000000000e+02 1.200000000000000000e+01
7.750000000000000000e+02 1.200000000000000000e+01
9.000000000000000000e+01 1.300000000000000000e+01
5.190000000000000000e+02 1.300000000000000000e+01
5.220000000000000000e+02 1.300000000000000000e+01
5.840000000000000000e+02 1.300000000000000000e+01
6.440000000000000000e+02 1.300000000000000000e+01
6.460000000000000000e+02 1.300000000000000000e+01
7.070000000000000000e+02 1.300000000000000000e+01
7.090000000000000000e+02 1.300000000000000000e+01
7.750000000000000000e+02 1.300000000000000000e+01
5.820000000000000000e+02 1.400000000000000000e+01
6.440000000000000000e+02 1.400000000000000000e+01
6.460000000000000000e+02 1.400000000000000000e+01
7.070000000000000000e+02 1.400000000000000000e+01
7.090000000000000000e+02 1.400000000000000000e+01
5.220000000000000000e+02 1.500000000000000000e+01
5.820000000000000000e+02 1.500000000000000000e+01
5.840000000000000000e+02 1.500000000000000000e+01
6.440000000000000000e+02 1.500000000000000000e+01
6.460000000000000000e+02 1.500000000000000000e+01
7.070000000000000000e+02 1.500000000000000000e+01
7.090000000000000000e+02 1.500000000000000000e+01
5.190000000000000000e+02 1.600000000000000000e+01
5.820000000000000000e+02 1.600000000000000000e+01
5.840000000000000000e+02 1.600000000000000000e+01
6.440000000000000000e+02 1.600000000000000000e+01
6.460000000000000000e+02 1.600000000000000000e+01
7.070000000000000000e+02 1.600000000000000000e+01
7.090000000000000000e+02 1.600000000000000000e+01
5.210000000000000000e+02 1.700000000000000000e+01
5.220000000000000000e+02 1.700000000000000000e+01
5.820000000000000000e+02 1.700000000000000000e+01
5.840000000000000000e+02 1.700000000000000000e+01
6.440000000000000000e+02 1.700000000000000000e+01
6.460000000000000000e+02 1.700000000000000000e+01
7.070000000000000000e+02 1.700000000000000000e+01
7.090000000000000000e+02 1.700000000000000000e+01
5.190000000000000000e+02 1.800000000000000000e+01
5.820000000000000000e+02 1.800000000000000000e+01
5.830000000000000000e+02 1.800000000000000000e+01
6.440000000000000000e+02 1.800000000000000000e+01
6.460000000000000000e+02 1.800000000000000000e+01
7.070000000000000000e+02 1.800000000000000000e+01
7.090000000000000000e+02 1.800000000000000000e+01
5.190000000000000000e+02 1.900000000000000000e+01
5.210000000000000000e+02 1.900000000000000000e+01
5.830000000000000000e+02 1.900000000000000000e+01
6.440000000000000000e+02 1.900000000000000000e+01
6.460000000000000000e+02 1.900000000000000000e+01
7.070000000000000000e+02 1.900000000000000000e+01
7.090000000000000000e+02 1.900000000000000000e+01
5.190000000000000000e+02 2.000000000000000000e+01
5.820000000000000000e+02 2.000000000000000000e+01
5.830000000000000000e+02 2.000000000000000000e+01
6.440000000000000000e+02 2.000000000000000000e+01
6.460000000000000000e+02 2.000000000000000000e+01
7.070000000000000000e+02 2.000000000000000000e+01
7.090000000000000000e+02 2.000000000000000000e+01
5.190000000000000000e+02 2.100000000000000000e+01
5.210000000000000000e+02 2.100000000000000000e+01
5.820000000000000000e+02 2.100000000000000000e+01
5.830000000000000000e+02 2.100000000000000000e+01
6.440000000000000000e+02 2.100000000000000000e+01
6.450000000000000000e+02 2.100000000000000000e+01
7.070000000000000000e+02 2.100000000000000000e+01
7.090000000000000000e+02 2.100000000000000000e+01
5.190000000000000000e+02 2.200000000000000000e+01
5.210000000000000000e+02 2.200000000000000000e+01
5.820000000000000000e+02 2.200000000000000000e+01
5.830000000000000000e+02 2.200000000000000000e+01
6.440000000000000000e+02 2.200000000000000000e+01
6.450000000000000000e+02 2.200000000000000000e+01
7.070000000000000000e+02 2.200000000000000000e+01
7.090000000000000000e+02 2.200000000000000000e+01
5.190000000000000000e+02 2.300000000000000000e+01
5.210000000000000000e+02 2.300000000000000000e+01
5.820000000000000000e+02 2.300000000000000000e+01
5.830000000000000000e+02 2.300000000000000000e+01
6.440000000000000000e+02 2.300000000000000000e+01
6.450000000000000000e+02 2.300000000000000000e+01
7.070000000000000000e+02 2.300000000000000000e+01
7.090000000000000000e+02 2.300000000000000000e+01
5.190000000000000000e+02 2.400000000000000000e+01
5.820000000000000000e+02 2.400000000000000000e+01
5.830000000000000000e+02 2.400000000000000000e+01
6.440000000000000000e+02 2.400000000000000000e+01
6.450000000000000000e+02 2.400000000000000000e+01
7.070000000000000000e+02 2.400000000000000000e+01
7.090000000000000000e+02 2.400000000000000000e+01
5.190000000000000000e+02 2.500000000000000000e+01
5.210000000000000000e+02 2.500000000000000000e+01
5.820000000000000000e+02 2.500000000000000000e+01
5.830000000000000000e+02 2.500000000000000000e+01
6.440000000000000000e+02 2.500000000000000000e+01
6.450000000000000000e+02 2.500000000000000000e+01
7.070000000000000000e+02 2.500000000000000000e+01
7.090000000000000000e+02 2.500000000000000000e+01
5.200000000000000000e+02 2.600000000000000000e+01
5.820000000000000000e+02 2.600000000000000000e+01
5.830000000000000000e+02 2.600000000000000000e+01
6.440000000000000000e+02 2.600000000000000000e+01
6.450000000000000000e+02 2.600000000000000000e+01
7.070000000000000000e+02 2.600000000000000000e+01
7.090000000000000000e+02 2.600000000000000000e+01
5.210000000000000000e+02 2.700000000000000000e+01
5.820000000000000000e+02 2.700000000000000000e+01
5.830000000000000000e+02 2.700000000000000000e+01
6.440000000000000000e+02 2.700000000000000000e+01
6.450000000000000000e+02 2.700000000000000000e+01
7.070000000000000000e+02 2.700000000000000000e+01
7.090000000000000000e+02 2.700000000000000000e+01
5.200000000000000000e+02 2.800000000000000000e+01
5.820000000000000000e+02 2.800000000000000000e+01
5.830000000000000000e+02 2.800000000000000000e+01
6.440000000000000000e+02 2.800000000000000000e+01
6.450000000000000000e+02 2.800000000000000000e+01
7.070000000000000000e+02 2.800000000000000000e+01
7.090000000000000000e+02 2.800000000000000000e+01
5.200000000000000000e+02 2.900000000000000000e+01
5.210000000000000000e+02 2.900000000000000000e+01
5.820000000000000000e+02 2.900000000000000000e+01
5.830000000000000000e+02 2.900000000000000000e+01
6.440000000000000000e+02 2.900000000000000000e+01
6.450000000000000000e+02 2.900000000000000000e+01
7.070000000000000000e+02 2.900000000000000000e+01
7.080000000000000000e+02 2.900000000000000000e+01
5.200000000000000000e+02 3.000000000000000000e+01
5.210000000000000000e+02 3.000000000000000000e+01
5.820000000000000000e+02 3.000000000000000000e+01
5.830000000000000000e+02 3.000000000000000000e+01
6.450000000000000000e+02 3.000000000000000000e+01
7.080000000000000000e+02 3.000000000000000000e+01
5.200000000000000000e+02 3.100000000000000000e+01
5.210000000000000000e+02 3.100000000000000000e+01
5.830000000000000000e+02 3.100000000000000000e+01
7.080000000000000000e+02 3.100000000000000000e+01
5.200000000000000000e+02 3.200000000000000000e+01
5.830000000000000000e+02 3.200000000000000000e+01
7.080000000000000000e+02 3.200000000000000000e+01
5.200000000000000000e+02 3.300000000000000000e+01
5.210000000000000000e+02 3.300000000000000000e+01
7.080000000000000000e+02 3.300000000000000000e+01
5.200000000000000000e+02 3.400000000000000000e+01
5.200000000000000000e+02 3.500000000000000000e+01
5.210000000000000000e+02 3.500000000000000000e+01
7.080000000000000000e+02 3.500000000000000000e+01
5.200000000000000000e+02 3.600000000000000000e+01
5.210000000000000000e+02 3.600000000000000000e+01
7.080000000000000000e+02 3.600000000000000000e+01
5.200000000000000000e+02 3.700000000000000000e+01
5.210000000000000000e+02 3.700000000000000000e+01
5.210000000000000000e+02 3.800000000000000000e+01
