1.500000000000000000e+01 2.800000000000000000e+01
1.600000000000000000e+01 2.800000000000000000e+01
1.700000000000000000e+01 2.800000000000000000e+01
1.800000000000000000e+01 2.800000000000000000e+01
1.900000000000000000e+01 2.800000000000000000e+01
2.000000000000000000e+01 2.800000000000000000e+01
2.100000000000000000e+01 2.800000000000000000e+01
2.200000000000000000e+01 2.800000000000000000e+01
2.300000000000000000e+01 2.800000000000000000e+01
2.400000000000000000e+01 2.800000000000000000e+01
2.500000000000000000e+01 2.800000000000000000e+01
2.600000000000000000e+01 2.800000000000000000e+01
2.700000000000000000e+01 2.800000000000000000e+01
2.800000000000000000e+01 2.800000000000000000e+01
2.900000000000000000e+01 2.800000000000000000e+01
1.500000000000000000e+01 2.900000000000000000e+01
2.900000000000000000e+01 2.900000000000000000e+01
1.500000000000000000e+01 3.000000000000000000e+01
2.900000000000000000e+01 3.000000000000000000e+01
1.500000000000000000e+01 3.100000000000000000e+01
2.900000000000000000e+01 3.100000000000000000e+01
1.500000000000000000e+01 3.200000000000000000e+01
2.900000000000000000e+01 3.200000000000000000e+01
1.500000000000000000e+01 3.300000000000000000e+01
2.900000000000000000e+01 3.300000000000000000e+01
1.500000000000000000e+01 3.400000000000000000e+01
2.900000000000000000e+01 3.400000000000000000e+01
1.500000000000000000e+01 3.500000000000000000e+01
2.900000000000000000e+01 3.500000000000000000e+01
1.500000000000000000e+01 3.600000000000000000e+01
2.900000000000000000e+01 3.600000000000000000e+01
1.500000000000000000e+01 3.700000000000000000e+01
2.900000000000000000e+01 3.700000000000000000e+01
1.500000000000000000e+01 3.800000000000000000e+01
2.900000000000000000e+01 3.800000000000000000e+01
1.500000000000000000e+01 3.900000000000000000e+01
2.900000000000000000e+01 3.900000000000000000e+01
1.500000000000000000e+01 4.000000000000000000e+01
2.900000000000000000e+01 4.000000000000000000e+01
3.700000000000000000e+01 4.000000000000000000e+01
1.500000000000000000e+01 4.100000000000000000e+01
2.900000000000000000e+01 4.100000000000000000e+01
3.700000000000000000e+01 4.100000000000000000e+01
1.140000000000000000e+02 4.100000000000000000e+01
3.130000000000000000e+02 4.100000000000000000e+01
6.200000000000000000e+02 4.100000000000000000e+01
6.700000000000000000e+02 4.100000000000000000e+01
1.500000000000000000e+01 4.200000000000000000e+01
2.900000000000000000e+01 4.200000000000000000e+01
3.700000000000000000e+01 4.200000000000000000e+01
6.500000000000000000e+01 4.200000000000000000e+01
1.140000000000000000e+02 4.200000000000000000e+01
2.650000000000000000e+02 4.200000000000000000e+01
3.130000000000000000e+02 4.200000000000000000e+01
5.690000000000000000e+02 4.200000000000000000e+01
6.200000000000000000e+02 4.200000000000000000e+01
6.700000000000000000e+02 4.200000000000000000e+01
1.500000000000000000e+01 4.300000000000000000e+01
2.900000000000000000e+01 4.300000000000000000e+01
3.700000000000000000e+01 4.300000000000000000e+01
4.000000000000000000e+01 4.300000000000000000e+01
6.500000000000000000e+01 4.300000000000000000e+01
1.140000000000000000e+02 4.300000000000000000e+01
1.650000000000000000e+02 4.300000000000000000e+01
2.160000000000000000e+02 4.300000000000000000e+01
2.650000000000000000e+02 4.300000000000000000e+01
3.130000000000000000e+02 4.300000000000000000e+01
4.160000000000000000e+02 4.300000000000000000e+01
5.690000000000000000e+02 4.300000000000000000e+01
6.200000000000000000e+02 4.300000000000000000e+01
6.700000000000000000e+02 4.300000000000000000e+01
7.190000000000000000e+02 4.300000000000000000e+01
1.500000000000000000e+01 4.400000000000000000e+01
2.900000000000000000e+01 4.400000000000000000e+01
3.700000000000000000e+01 4.400000000000000000e+01
6.500000000000000000e+01 4.400000000000000000e+01
1.140000000000000000e+02 4.400000000000000000e+01
1.650000000000000000e+02 4.400000000000000000e+01
2.160000000000000000e+02 4.400000000000000000e+01
2.650000000000000000e+02 4.400000000000000000e+01
3.130000000000000000e+02 4.400000000000000000e+01
4.160000000000000000e+02 4.400000000000000000e+01
5.690000000000000000e+02 4.400000000000000000e+01
6.200000000000000000e+02 4.400000000000000000e+01
6.700000000000000000e+02 4.400000000000000000e+01
7.190000000000000000e+02 4.400000000000000000e+01
1.500000000000000000e+01 4.500000000000000000e+01
2.900000000000000000e+01 4.500000000000000000e+01
3.700000000000000000e+01 4.500000000000000000e+01
6.500000000000000000e+01 4.500000000000000000e+01
1.140000000000000000e+02 4.500000000000000000e+01
1.650000000000000000e+02 4.500000000000000000e+01
2.160000000000000000e+02 4.500000000000000000e+01
2.650000000000000000e+02 4.500000000000000000e+01
3.130000000000000000e+02 4.500000000000000000e+01
3.640000000000000000e+02 4.500000000000000000e+01
4.160000000000000000e+02 4.500000000000000000e+01
4.660000000000000000e+02 4.500000000000000000e+01
5.180000000000000000e+02 4.500000000000000000e+01
5.690000000000000000e+02 4.500000000000000000e+01
6.200000000000000000e+02 4.500000000000000000e+01
6.700000000000000000e+02 4.500000000000000000e+01
7.190000000000000000e+02 4.500000000000000000e+01
1.500000000000000000e+01 4.600000000000000000e+01
2.900000000000000000e+01 4.600000000000000000e+01
3.700000000000000000e+01 4.600000000000000000e+01
6.500000000000000000e+01 4.600000000000000000e+01
1.140000000000000000e+02 4.600000000000000000e+01
1.650000000000000000e+02 4.600000000000000000e+01
2.160000000000000000e+02 4.600000000000000000e+01
2.650000000000000000e+02 4.600000000000000000e+01
3.130000000000000000e+02 4.600000000000000000e+01
3.640000000000000000e+02 4.600000000000000000e+01
4.160000000000000000e+02 4.600000000000000000e+01
4.660000000000000000e+02 4.600000000000000000e+01
5.180000000000000000e+02 4.600000000000000000e+01
5.690000000000000000e+02 4.600000000000000000e+01
6.200000000000000000e+02 4.600000000000000000e+01
6.700000000000000000e+02 4.600000000000000000e+01
7.190000000000000000e+02 4.600000000000000000e+01
1.500000000000000000e+01 4.700000000000000000e+01
2.900000000000000000e+01 4.700000000000000000e+01
3.700000000000000000e+01 4.700000000000000000e+01
4.000000000000000000e+01 4.700000000000000000e+01
6.500000000000000000e+01 4.700000000000000000e+01
1.140000000000000000e+02 4.700000000000000000e+01
1.650000000000000000e+02 4.700000000000000000e+01
2.160000000000000000e+02 4.700000000000000000e+01
2.650000000000000000e+02 4.700000000000000000e+01
3.130000000000000000e+02 4.700000000000000000e+01
3.630000000000000000e+02 4.700000000000000000e+01
3.640000000000000000e+02 4.700000000000000000e+01
4.160000000000000000e+02 4.700000000000000000e+01
4.660000000000000000e+02 4.700000000000000000e+01
5.170000000000000000e+02 4.700000000000000000e+01
5.180000000000000000e+02 4.700000000000000000e+01
5.690000000000000000e+02 4.700000000000000000e+01
6.200000000000000000e+02 4.700000000000000000e+01
6.700000000000000000e+02 4.700000000000000000e+01
7.190000000000000000e+02 4.700000000000000000e+01
1.500000000000000000e+01 4.800000000000000000e+01
2.900000000000000000e+01 4.800000000000000000e+01
3.700000000000000000e+01 4.800000000000000000e+01
6.500000000000000000e+01 4.800000000000000000e+01
1.140000000000000000e+02 4.800000000000000000e+01
1.650000000000000000e+02 4.800000000000000000e+01
2.160000000000000000e+02 4.800000000000000000e+01
3.130000000000000000e+02 4.800000000000000000e+01
3.630000000000000000e+02 4.800000000000000000e+01
3.640000000000000000e+02 4.800000000000000000e+01
4.160000000000000000e+02 4.800000000000000000e+01
4.650000000000000000e+02 4.800000000000000000e+01
4.660000000000000000e+02 4.800000000000000000e+01
5.170000000000000000e+02 4.800000000000000000e+01
5.180000000000000000e+02 4.800000000000000000e+01
5.690000000000000000e+02 4.800000000000000000e+01
6.200000000000000000e+02 4.800000000000000000e+01
6.700000000000000000e+02 4.800000000000000000e+01
7.190000000000000000e+02 4.800000000000000000e+01
1.500000000000000000e+01 4.900000000000000000e+01
2.900000000000000000e+01 4.900000000000000000e+01
6.500000000000000000e+01 4.900000000000000000e+01
2.160000000000000000e+02 4.900000000000000000e+01
3.130000000000000000e+02 4.900000000000000000e+01
3.630000000000000000e+02 4.900000000000000000e+01
3.640000000000000000e+02 4.900000000000000000e+01
4.150000000000000000e+02 4.900000000000000000e+01
4.650000000000000000e+02 4.900000000000000000e+01
4.660000000000000000e+02 4.900000000000000000e+01
5.170000000000000000e+02 4.900000000000000000e+01
5.180000000000000000e+02 4.900000000000000000e+01
5.690000000000000000e+02 4.900000000000000000e+01
6.200000000000000000e+02 4.900000000000000000e+01
7.200000000000000000e+02 4.900000000000000000e+01
1.500000000000000000e+01 5.000000000000000000e+01
2.900000000000000000e+01 5.000000000000000000e+01
6.500000000000000000e+01 5.000000000000000000e+01
8.200000000000000000e+01 5.000000000000000000e+01
1.300000000000000000e+02 5.000000000000000000e+01
1.320000000000000000e+02 5.000000000000000000e+01
1.660000000000000000e+02 5.000000000000000000e+01
2.160000000000000000e+02 5.000000000000000000e+01
2.330000000000000000e+02 5.000000000000000000e+01
2.810000000000000000e+02 5.000000000000000000e+01
3.300000000000000000e+02 5.000000000000000000e+01
3.630000000000000000e+02 5.000000000000000000e+01
3.640000000000000000e+02 5.000000000000000000e+01
4.150000000000000000e+02 5.000000000000000000e+01
4.320000000000000000e+02 5.000000000000000000e+01
4.330000000000000000e+02 5.000000000000000000e+01
4.650000000000000000e+02 5.000000000000000000e+01
4.830000000000000000e+02 5.000000000000000000e+01
5.170000000000000000e+02 5.000000000000000000e+01
5.340000000000000000e+02 5.000000000000000000e+01
6.360000000000000000e+02 5.000000000000000000e+01
6.860000000000000000e+02 5.000000000000000000e+01
7.200000000000000000e+02 5.000000000000000000e+01
1.500000000000000000e+01 5.100000000000000000e+01
2.900000000000000000e+01 5.100000000000000000e+01
3.300000000000000000e+01 5.100000000000000000e+01
8.300000000000000000e+01 5.100000000000000000e+01
1.290000000000000000e+02 5.100000000000000000e+01
1.660000000000000000e+02 5.100000000000000000e+01
2.150000000000000000e+02 5.100000000000000000e+01
2.830000000000000000e+02 5.100000000000000000e+01
3.310000000000000000e+02 5.100000000000000000e+01
4.150000000000000000e+02 5.100000000000000000e+01
4.310000000000000000e+02 5.100000000000000000e+01
4.650000000000000000e+02 5.100000000000000000e+01
4.810000000000000000e+02 5.100000000000000000e+01
5.170000000000000000e+02 5.100000000000000000e+01
6.190000000000000000e+02 5.100000000000000000e+01
6.380000000000000000e+02 5.100000000000000000e+01
6.850000000000000000e+02 5.100000000000000000e+01
7.200000000000000000e+02 5.100000000000000000e+01
1.500000000000000000e+01 5.200000000000000000e+01
2.900000000000000000e+01 5.200000000000000000e+01
1.150000000000000000e+02 5.200000000000000000e+01
1.660000000000000000e+02 5.200000000000000000e+01
1.800000000000000000e+02 5.200000000000000000e+01
2.150000000000000000e+02 5.200000000000000000e+01
4.150000000000000000e+02 5.200000000000000000e+01
4.340000000000000000e+02 5.200000000000000000e+01
4.800000000000000000e+02 5.200000000000000000e+01
4.840000000000000000e+02 5.200000000000000000e+01
6.190000000000000000e+02 5.200000000000000000e+01
7.200000000000000000e+02 5.200000000000000000e+01
1.500000000000000000e+01 5.300000000000000000e+01
2.900000000000000000e+01 5.300000000000000000e+01
7.900000000000000000e+01 5.300000000000000000e+01
1.150000000000000000e+02 5.300000000000000000e+01
1.340000000000000000e+02 5.300000000000000000e+01
1.660000000000000000e+02 5.300000000000000000e+01
2.150000000000000000e+02 5.300000000000000000e+01
2.300000000000000000e+02 5.300000000000000000e+01
2.640000000000000000e+02 5.300000000000000000e+01
3.270000000000000000e+02 5.300000000000000000e+01
5.830000000000000000e+02 5.300000000000000000e+01
5.880000000000000000e+02 5.300000000000000000e+01
6.190000000000000000e+02 5.300000000000000000e+01
6.840000000000000000e+02 5.300000000000000000e+01
6.890000000000000000e+02 5.300000000000000000e+01
1.500000000000000000e+01 5.400000000000000000e+01
2.900000000000000000e+01 5.400000000000000000e+01
3.400000000000000000e+01 5.400000000000000000e+01
8.400000000000000000e+01 5.400000000000000000e+01
1.020000000000000000e+02 5.400000000000000000e+01
1.030000000000000000e+02 5.400000000000000000e+01
1.040000000000000000e+02 5.400000000000000000e+01
1.150000000000000000e+02 5.400000000000000000e+01
1.660000000000000000e+02 5.400000000000000000e+01
2.150000000000000000e+02 5.400000000000000000e+01
2.290000000000000000e+02 5.400000000000000000e+01
2.350000000000000000e+02 5.400000000000000000e+01
2.640000000000000000e+02 5.400000000000000000e+01
2.840000000000000000e+02 5.400000000000000000e+01
3.010000000000000000e+02 5.400000000000000000e+01
3.020000000000000000e+02 5.400000000000000000e+01
3.840000000000000000e+02 5.400000000000000000e+01
4.040000000000000000e+02 5.400000000000000000e+01
4.540000000000000000e+02 5.400000000000000000e+01
4.550000000000000000e+02 5.400000000000000000e+01
5.310000000000000000e+02 5.400000000000000000e+01
5.820000000000000000e+02 5.400000000000000000e+01
6.070000000000000000e+02 5.400000000000000000e+01
6.080000000000000000e+02 5.400000000000000000e+01
6.190000000000000000e+02 5.400000000000000000e+01
6.320000000000000000e+02 5.400000000000000000e+01
6.390000000000000000e+02 5.400000000000000000e+01
6.580000000000000000e+02 5.400000000000000000e+01
6.690000000000000000e+02 5.400000000000000000e+01
7.090000000000000000e+02 5.400000000000000000e+01
1.500000000000000000e+01 5.500000000000000000e+01
2.900000000000000000e+01 5.500000000000000000e+01
5.500000000000000000e+01 5.500000000000000000e+01
6.400000000000000000e+01 5.500000000000000000e+01
1.150000000000000000e+02 5.500000000000000000e+01
1.530000000000000000e+02 5.500000000000000000e+01
1.770000000000000000e+02 5.500000000000000000e+01
2.060000000000000000e+02 5.500000000000000000e+01
2.270000000000000000e+02 5.500000000000000000e+01
2.550000000000000000e+02 5.500000000000000000e+01
2.640000000000000000e+02 5.500000000000000000e+01
2.750000000000000000e+02 5.500000000000000000e+01
2.760000000000000000e+02 5.500000000000000000e+01
3.140000000000000000e+02 5.500000000000000000e+01
4.260000000000000000e+02 5.500000000000000000e+01
4.270000000000000000e+02 5.500000000000000000e+01
4.770000000000000000e+02 5.500000000000000000e+01
5.290000000000000000e+02 5.500000000000000000e+01
5.700000000000000000e+02 5.500000000000000000e+01
6.060000000000000000e+02 5.500000000000000000e+01
6.090000000000000000e+02 5.500000000000000000e+01
6.310000000000000000e+02 5.500000000000000000e+01
6.690000000000000000e+02 5.500000000000000000e+01
6.810000000000000000e+02 5.500000000000000000e+01
7.300000000000000000e+02 5.500000000000000000e+01
1.200000000000000000e+01 5.600000000000000000e+01
1.300000000000000000e+01 5.600000000000000000e+01
1.400000000000000000e+01 5.600000000000000000e+01
1.500000000000000000e+01 5.600000000000000000e+01
2.900000000000000000e+01 5.600000000000000000e+01
3.000000000000000000e+01 5.600000000000000000e+01
3.100000000000000000e+01 5.600000000000000000e+01
3.200000000000000000e+01 5.600000000000000000e+01
3.500000000000000000e+01 5.600000000000000000e+01
6.400000000000000000e+01 5.600000000000000000e+01
8.500000000000000000e+01 5.600000000000000000e+01
1.150000000000000000e+02 5.600000000000000000e+01
1.190000000000000000e+02 5.600000000000000000e+01
1.200000000000000000e+02 5.600000000000000000e+01
1.210000000000000000e+02 5.600000000000000000e+01
1.520000000000000000e+02 5.600000000000000000e+01
1.720000000000000000e+02 5.600000000000000000e+01
1.730000000000000000e+02 5.600000000000000000e+01
2.030000000000000000e+02 5.600000000000000000e+01
2.250000000000000000e+02 5.600000000000000000e+01
2.640000000000000000e+02 5.600000000000000000e+01
2.710000000000000000e+02 5.600000000000000000e+01
2.720000000000000000e+02 5.600000000000000000e+01
3.120000000000000000e+02 5.600000000000000000e+01
3.140000000000000000e+02 5.600000000000000000e+01
3.220000000000000000e+02 5.600000000000000000e+01
3.330000000000000000e+02 5.600000000000000000e+01
3.540000000000000000e+02 5.600000000000000000e+01
3.710000000000000000e+02 5.600000000000000000e+01
3.720000000000000000e+02 5.600000000000000000e+01
4.020000000000000000e+02 5.600000000000000000e+01
4.220000000000000000e+02 5.600000000000000000e+01
4.240000000000000000e+02 5.600000000000000000e+01
4.360000000000000000e+02 5.600000000000000000e+01
4.520000000000000000e+02 5.600000000000000000e+01
4.720000000000000000e+02 5.600000000000000000e+01
4.730000000000000000e+02 5.600000000000000000e+01
5.260000000000000000e+02 5.600000000000000000e+01
5.270000000000000000e+02 5.600000000000000000e+01
5.680000000000000000e+02 5.600000000000000000e+01
5.700000000000000000e+02 5.600000000000000000e+01
5.770000000000000000e+02 5.600000000000000000e+01
5.780000000000000000e+02 5.600000000000000000e+01
6.270000000000000000e+02 5.600000000000000000e+01
6.400000000000000000e+02 5.600000000000000000e+01
6.690000000000000000e+02 5.600000000000000000e+01
6.770000000000000000e+02 5.600000000000000000e+01
6.780000000000000000e+02 5.600000000000000000e+01
7.250000000000000000e+02 5.600000000000000000e+01
5.600000000000000000e+01 5.700000000000000000e+01
6.400000000000000000e+01 5.700000000000000000e+01
6.600000000000000000e+01 5.700000000000000000e+01
7.000000000000000000e+01 5.700000000000000000e+01
1.060000000000000000e+02 5.700000000000000000e+01
1.130000000000000000e+02 5.700000000000000000e+01
1.360000000000000000e+02 5.700000000000000000e+01
1.640000000000000000e+02 5.700000000000000000e+01
1.680000000000000000e+02 5.700000000000000000e+01
1.690000000000000000e+02 5.700000000000000000e+01
1.700000000000000000e+02 5.700000000000000000e+01
2.020000000000000000e+02 5.700000000000000000e+01
2.070000000000000000e+02 5.700000000000000000e+01
2.190000000000000000e+02 5.700000000000000000e+01
2.200000000000000000e+02 5.700000000000000000e+01
2.210000000000000000e+02 5.700000000000000000e+01
2.220000000000000000e+02 5.700000000000000000e+01
2.660000000000000000e+02 5.700000000000000000e+01
2.960000000000000000e+02 5.700000000000000000e+01
2.970000000000000000e+02 5.700000000000000000e+01
2.980000000000000000e+02 5.700000000000000000e+01
3.120000000000000000e+02 5.700000000000000000e+01
3.140000000000000000e+02 5.700000000000000000e+01
3.170000000000000000e+02 5.700000000000000000e+01
3.180000000000000000e+02 5.700000000000000000e+01
3.620000000000000000e+02 5.700000000000000000e+01
3.660000000000000000e+02 5.700000000000000000e+01
3.670000000000000000e+02 5.700000000000000000e+01
3.680000000000000000e+02 5.700000000000000000e+01
4.010000000000000000e+02 5.700000000000000000e+01
4.570000000000000000e+02 5.700000000000000000e+01
4.860000000000000000e+02 5.700000000000000000e+01
5.160000000000000000e+02 5.700000000000000000e+01
5.210000000000000000e+02 5.700000000000000000e+01
5.220000000000000000e+02 5.700000000000000000e+01
5.600000000000000000e+02 5.700000000000000000e+01
5.680000000000000000e+02 5.700000000000000000e+01
5.700000000000000000e+02 5.700000000000000000e+01
5.720000000000000000e+02 5.700000000000000000e+01
5.730000000000000000e+02 5.700000000000000000e+01
5.740000000000000000e+02 5.700000000000000000e+01
5.900000000000000000e+02 5.700000000000000000e+01
6.040000000000000000e+02 5.700000000000000000e+01
6.170000000000000000e+02 5.700000000000000000e+01
6.180000000000000000e+02 5.700000000000000000e+01
6.410000000000000000e+02 5.700000000000000000e+01
6.730000000000000000e+02 5.700000000000000000e+01
7.030000000000000000e+02 5.700000000000000000e+01
7.220000000000000000e+02 5.700000000000000000e+01
3.700000000000000000e+01 5.800000000000000000e+01
3.900000000000000000e+01 5.800000000000000000e+01
4.400000000000000000e+01 5.800000000000000000e+01
4.500000000000000000e+01 5.800000000000000000e+01
4.600000000000000000e+01 5.800000000000000000e+01
5.700000000000000000e+01 5.800000000000000000e+01
6.600000000000000000e+01 5.800000000000000000e+01
8.700000000000000000e+01 5.800000000000000000e+01
8.800000000000000000e+01 5.800000000000000000e+01
9.400000000000000000e+01 5.800000000000000000e+01
9.500000000000000000e+01 5.800000000000000000e+01
9.600000000000000000e+01 5.800000000000000000e+01
1.160000000000000000e+02 5.800000000000000000e+01
1.390000000000000000e+02 5.800000000000000000e+01
1.400000000000000000e+02 5.800000000000000000e+01
1.430000000000000000e+02 5.800000000000000000e+01
1.440000000000000000e+02 5.800000000000000000e+01
1.880000000000000000e+02 5.800000000000000000e+01
1.910000000000000000e+02 5.800000000000000000e+01
1.940000000000000000e+02 5.800000000000000000e+01
1.960000000000000000e+02 5.800000000000000000e+01
1.970000000000000000e+02 5.800000000000000000e+01
1.980000000000000000e+02 5.800000000000000000e+01
1.990000000000000000e+02 5.800000000000000000e+01
2.000000000000000000e+02 5.800000000000000000e+01
2.080000000000000000e+02 5.800000000000000000e+01
2.140000000000000000e+02 5.800000000000000000e+01
2.180000000000000000e+02 5.800000000000000000e+01
2.390000000000000000e+02 5.800000000000000000e+01
2.450000000000000000e+02 5.800000000000000000e+01
2.460000000000000000e+02 5.800000000000000000e+01
2.580000000000000000e+02 5.800000000000000000e+01
2.630000000000000000e+02 5.800000000000000000e+01
2.660000000000000000e+02 5.800000000000000000e+01
2.900000000000000000e+02 5.800000000000000000e+01
2.910000000000000000e+02 5.800000000000000000e+01
2.920000000000000000e+02 5.800000000000000000e+01
3.060000000000000000e+02 5.800000000000000000e+01
3.140000000000000000e+02 5.800000000000000000e+01
3.360000000000000000e+02 5.800000000000000000e+01
3.370000000000000000e+02 5.800000000000000000e+01
3.380000000000000000e+02 5.800000000000000000e+01
3.430000000000000000e+02 5.800000000000000000e+01
3.440000000000000000e+02 5.800000000000000000e+01
3.450000000000000000e+02 5.800000000000000000e+01
3.460000000000000000e+02 5.800000000000000000e+01
3.470000000000000000e+02 5.800000000000000000e+01
3.650000000000000000e+02 5.800000000000000000e+01
3.880000000000000000e+02 5.800000000000000000e+01
3.890000000000000000e+02 5.800000000000000000e+01
3.900000000000000000e+02 5.800000000000000000e+01
3.910000000000000000e+02 5.800000000000000000e+01
3.920000000000000000e+02 5.800000000000000000e+01
3.930000000000000000e+02 5.800000000000000000e+01
3.940000000000000000e+02 5.800000000000000000e+01
3.950000000000000000e+02 5.800000000000000000e+01
4.180000000000000000e+02 5.800000000000000000e+01
4.390000000000000000e+02 5.800000000000000000e+01
4.440000000000000000e+02 5.800000000000000000e+01
4.590000000000000000e+02 5.800000000000000000e+01
4.670000000000000000e+02 5.800000000000000000e+01
4.880000000000000000e+02 5.800000000000000000e+01
4.960000000000000000e+02 5.800000000000000000e+01
4.970000000000000000e+02 5.800000000000000000e+01
4.980000000000000000e+02 5.800000000000000000e+01
4.990000000000000000e+02 5.800000000000000000e+01
5.000000000000000000e+02 5.800000000000000000e+01
5.020000000000000000e+02 5.800000000000000000e+01
5.400000000000000000e+02 5.800000000000000000e+01
5.410000000000000000e+02 5.800000000000000000e+01
5.610000000000000000e+02 5.800000000000000000e+01
5.700000000000000000e+02 5.800000000000000000e+01
5.920000000000000000e+02 5.800000000000000000e+01
5.930000000000000000e+02 5.800000000000000000e+01
5.950000000000000000e+02 5.800000000000000000e+01
5.960000000000000000e+02 5.800000000000000000e+01
5.970000000000000000e+02 5.800000000000000000e+01
6.120000000000000000e+02 5.800000000000000000e+01
6.220000000000000000e+02 5.800000000000000000e+01
6.430000000000000000e+02 5.800000000000000000e+01
6.440000000000000000e+02 5.800000000000000000e+01
6.490000000000000000e+02 5.800000000000000000e+01
6.500000000000000000e+02 5.800000000000000000e+01
6.680000000000000000e+02 5.800000000000000000e+01
6.710000000000000000e+02 5.800000000000000000e+01
6.950000000000000000e+02 5.800000000000000000e+01
6.960000000000000000e+02 5.800000000000000000e+01
6.970000000000000000e+02 5.800000000000000000e+01
6.980000000000000000e+02 5.800000000000000000e+01
7.120000000000000000e+02 5.800000000000000000e+01
7.180000000000000000e+02 5.800000000000000000e+01
5.900000000000000000e+01 5.900000000000000000e+01
6.000000000000000000e+01 5.900000000000000000e+01
6.100000000000000000e+01 5.900000000000000000e+01
6.200000000000000000e+01 5.900000000000000000e+01
6.600000000000000000e+01 5.900000000000000000e+01
1.160000000000000000e+02 5.900000000000000000e+01
1.600000000000000000e+02 5.900000000000000000e+01
1.610000000000000000e+02 5.900000000000000000e+01
1.620000000000000000e+02 5.900000000000000000e+01
1.670000000000000000e+02 5.900000000000000000e+01
2.100000000000000000e+02 5.900000000000000000e+01
2.110000000000000000e+02 5.900000000000000000e+01
2.120000000000000000e+02 5.900000000000000000e+01
2.130000000000000000e+02 5.900000000000000000e+01
2.170000000000000000e+02 5.900000000000000000e+01
2.660000000000000000e+02 5.900000000000000000e+01
3.090000000000000000e+02 5.900000000000000000e+01
3.100000000000000000e+02 5.900000000000000000e+01
3.140000000000000000e+02 5.900000000000000000e+01
3.150000000000000000e+02 5.900000000000000000e+01
3.590000000000000000e+02 5.900000000000000000e+01
3.600000000000000000e+02 5.900000000000000000e+01
3.610000000000000000e+02 5.900000000000000000e+01
3.650000000000000000e+02 5.900000000000000000e+01
4.170000000000000000e+02 5.900000000000000000e+01
4.620000000000000000e+02 5.900000000000000000e+01
4.670000000000000000e+02 5.900000000000000000e+01
5.120000000000000000e+02 5.900000000000000000e+01
5.130000000000000000e+02 5.900000000000000000e+01
5.140000000000000000e+02 5.900000000000000000e+01
5.190000000000000000e+02 5.900000000000000000e+01
5.630000000000000000e+02 5.900000000000000000e+01
5.640000000000000000e+02 5.900000000000000000e+01
5.650000000000000000e+02 5.900000000000000000e+01
5.660000000000000000e+02 5.900000000000000000e+01
5.670000000000000000e+02 5.900000000000000000e+01
5.700000000000000000e+02 5.900000000000000000e+01
5.710000000000000000e+02 5.900000000000000000e+01
6.210000000000000000e+02 5.900000000000000000e+01
6.710000000000000000e+02 5.900000000000000000e+01
7.210000000000000000e+02 5.900000000000000000e+01
6.600000000000000000e+01 6.000000000000000000e+01
1.670000000000000000e+02 6.000000000000000000e+01
2.170000000000000000e+02 6.000000000000000000e+01
3.650000000000000000e+02 6.000000000000000000e+01
4.170000000000000000e+02 6.000000000000000000e+01
4.670000000000000000e+02 6.000000000000000000e+01
5.190000000000000000e+02 6.000000000000000000e+01
6.210000000000000000e+02 6.000000000000000000e+01
6.710000000000000000e+02 6.000000000000000000e+01
2.170000000000000000e+02 6.100000000000000000e+01
3.650000000000000000e+02 6.100000000000000000e+01
4.170000000000000000e+02 6.100000000000000000e+01
4.670000000000000000e+02 6.100000000000000000e+01
5.190000000000000000e+02 6.100000000000000000e+01
6.210000000000000000e+02 6.100000000000000000e+01
