3.600000000000000000e+01 0.000000000000000000e+00
4.100000000000000000e+01 0.000000000000000000e+00
6.500000000000000000e+01 0.000000000000000000e+00
6.600000000000000000e+01 0.000000000000000000e+00
6.700000000000000000e+01 0.000000000000000000e+00
7.500000000000000000e+01 0.000000000000000000e+00
1.550000000000000000e+02 0.000000000000000000e+00
1.590000000000000000e+02 0.000000000000000000e+00
1.840000000000000000e+02 0.000000000000000000e+00
1.850000000000000000e+02 0.000000000000000000e+00
1.930000000000000000e+02 0.000000000000000000e+00
1.940000000000000000e+02 0.000000000000000000e+00
3.600000000000000000e+01 1.000000000000000000e+00
4.100000000000000000e+01 1.000000000000000000e+00
6.500000000000000000e+01 1.000000000000000000e+00
6.600000000000000000e+01 1.000000000000000000e+00
6.700000000000000000e+01 1.000000000000000000e+00
7.300000000000000000e+01 1.000000000000000000e+00
7.400000000000000000e+01 1.000000000000000000e+00
7.500000000000000000e+01 1.000000000000000000e+00
1.550000000000000000e+02 1.000000000000000000e+00
1.590000000000000000e+02 1.000000000000000000e+00
1.850000000000000000e+02 1.000000000000000000e+00
1.930000000000000000e+02 1.000000000000000000e+00
1.940000000000000000e+02 1.000000000000000000e+00
3.600000000000000000e+01 2.000000000000000000e+00
4.100000000000000000e+01 2.000000000000000000e+00
6.500000000000000000e+01 2.000000000000000000e+00
6.600000000000000000e+01 2.000000000000000000e+00
6.700000000000000000e+01 2.000000000000000000e+00
7.300000000000000000e+01 2.000000000000000000e+00
7.400000000000000000e+01 2.000000000000000000e+00
1.550000000000000000e+02 2.000000000000000000e+00
1.590000000000000000e+02 2.000000000000000000e+00
1.850000000000000000e+02 2.000000000000000000e+00
1.870000000000000000e+02 2.000000000000000000e+00
1.920000000000000000e+02 2.000000000000000000e+00
1.930000000000000000e+02 2.000000000000000000e+00
3.600000000000000000e+01 3.000000000000000000e+00
4.100000000000000000e+01 3.000000000000000000e+00
6.700000000000000000e+01 3.000000000000000000e+00
7.100000000000000000e+01 3.000000000000000000e+00
7.200000000000000000e+01 3.000000000000000000e+00
7.300000000000000000e+01 3.000000000000000000e+00
7.400000000000000000e+01 3.000000000000000000e+00
1.550000000000000000e+02 3.000000000000000000e+00
1.590000000000000000e+02 3.000000000000000000e+00
1.850000000000000000e+02 3.000000000000000000e+00
1.860000000000000000e+02 3.000000000000000000e+00
1.870000000000000000e+02 3.000000000000000000e+00
1.880000000000000000e+02 3.000000000000000000e+00
1.900000000000000000e+02 3.000000000000000000e+00
1.910000000000000000e+02 3.000000000000000000e+00
1.920000000000000000e+02 3.000000000000000000e+00
3.600000000000000000e+01 4.000000000000000000e+00
4.100000000000000000e+01 4.000000000000000000e+00
6.700000000000000000e+01 4.000000000000000000e+00
7.000000000000000000e+01 4.000000000000000000e+00
7.100000000000000000e+01 4.000000000000000000e+00
7.200000000000000000e+01 4.000000000000000000e+00
1.550000000000000000e+02 4.000000000000000000e+00
1.590000000000000000e+02 4.000000000000000000e+00
1.850000000000000000e+02 4.000000000000000000e+00
1.860000000000000000e+02 4.000000000000000000e+00
1.870000000000000000e+02 4.000000000000000000e+00
1.880000000000000000e+02 4.000000000000000000e+00
1.890000000000000000e+02 4.000000000000000000e+00
1.900000000000000000e+02 4.000000000000000000e+00
1.910000000000000000e+02 4.000000000000000000e+00
3.600000000000000000e+01 5.000000000000000000e+00
4.100000000000000000e+01 5.000000000000000000e+00
6.700000000000000000e+01 5.000000000000000000e+00
6.900000000000000000e+01 5.000000000000000000e+00
7.000000000000000000e+01 5.000000000000000000e+00
7.200000000000000000e+01 5.000000000000000000e+00
1.550000000000000000e+02 5.000000000000000000e+00
1.590000000000000000e+02 5.000000000000000000e+00
1.890000000000000000e+02 5.000000000000000000e+00
1.900000000000000000e+02 5.000000000000000000e+00
3.600000000000000000e+01 6.000000000000000000e+00
4.100000000000000000e+01 6.000000000000000000e+00
6.700000000000000000e+01 6.000000000000000000e+00
6.800000000000000000e+01 6.000000000000000000e+00
6.900000000000000000e+01 6.000000000000000000e+00
7.200000000000000000e+01 6.000000000000000000e+00
1.550000000000000000e+02 6.000000000000000000e+00
1.590000000000000000e+02 6.000000000000000000e+00
3.600000000000000000e+01 7.000000000000000000e+00
4.000000000000000000e+01 7.000000000000000000e+00
6.800000000000000000e+01 7.000000000000000000e+00
7.200000000000000000e+01 7.000000000000000000e+00
1.550000000000000000e+02 7.000000000000000000e+00
1.590000000000000000e+02 7.000000000000000000e+00
3.600000000000000000e+01 8.000000000000000000e+00
4.000000000000000000e+01 8.000000000000000000e+00
1.550000000000000000e+02 8.000000000000000000e+00
1.590000000000000000e+02 8.000000000000000000e+00
3.600000000000000000e+01 9.000000000000000000e+00
4.000000000000000000e+01 9.000000000000000000e+00
1.550000000000000000e+02 9.000000000000000000e+00
1.590000000000000000e+02 9.000000000000000000e+00
3.600000000000000000e+01 1.000000000000000000e+01
4.000000000000000000e+01 1.000000000000000000e+01
1.550000000000000000e+02 1.000000000000000000e+01
1.590000000000000000e+02 1.000000000000000000e+01
3.600000000000000000e+01 1.100000000000000000e+01
4.000000000000000000e+01 1.100000000000000000e+01
1.550000000000000000e+02 1.100000000000000000e+01
1.590000000000000000e+02 1.100000000000000000e+01
3.600000000000000000e+01 1.200000000000000000e+01
4.000000000000000000e+01 1.200000000000000000e+01
1.550000000000000000e+02 1.200000000000000000e+01
1.590000000000000000e+02 1.200000000000000000e+01
3.700000000000000000e+01 1.300000000000000000e+01
4.000000000000000000e+01 1.300000000000000000e+01
1.550000000000000000e+02 1.300000000000000000e+01
1.590000000000000000e+02 1.300000000000000000e+01
3.700000000000000000e+01 1.400000000000000000e+01
4.000000000000000000e+01 1.400000000000000000e+01
1.550000000000000000e+02 1.400000000000000000e+01
1.590000000000000000e+02 1.400000000000000000e+01
3.700000000000000000e+01 1.500000000000000000e+01
4.000000000000000000e+01 1.500000000000000000e+01
1.550000000000000000e+02 1.500000000000000000e+01
1.590000000000000000e+02 1.500000000000000000e+01
3.700000000000000000e+01 1.600000000000000000e+01
4.000000000000000000e+01 1.600000000000000000e+01
1.550000000000000000e+02 1.600000000000000000e+01
1.590000000000000000e+02 1.600000000000000000e+01
3.700000000000000000e+01 1.700000000000000000e+01
4.000000000000000000e+01 1.700000000000000000e+01
1.550000000000000000e+02 1.700000000000000000e+01
1.590000000000000000e+02 1.700000000000000000e+01
3.700000000000000000e+01 1.800000000000000000e+01
4.000000000000000000e+01 1.800000000000000000e+01
1.550000000000000000e+02 1.800000000000000000e+01
1.590000000000000000e+02 1.800000000000000000e+01
3.700000000000000000e+01 1.900000000000000000e+01
4.000000000000000000e+01 1.900000000000000000e+01
1.550000000000000000e+02 1.900000000000000000e+01
1.590000000000000000e+02 1.900000000000000000e+01
3.700000000000000000e+01 2.000000000000000000e+01
4.000000000000000000e+01 2.000000000000000000e+01
1.550000000000000000e+02 2.000000000000000000e+01
1.590000000000000000e+02 2.000000000000000000e+01
3.700000000000000000e+01 2.100000000000000000e+01
4.000000000000000000e+01 2.100000000000000000e+01
1.550000000000000000e+02 2.100000000000000000e+01
1.590000000000000000e+02 2.100000000000000000e+01
3.700000000000000000e+01 2.200000000000000000e+01
4.000000000000000000e+01 2.200000000000000000e+01
1.550000000000000000e+02 2.200000000000000000e+01
1.590000000000000000e+02 2.200000000000000000e+01
3.700000000000000000e+01 2.300000000000000000e+01
4.000000000000000000e+01 2.300000000000000000e+01
1.550000000000000000e+02 2.300000000000000000e+01
1.590000000000000000e+02 2.300000000000000000e+01
3.700000000000000000e+01 2.400000000000000000e+01
4.000000000000000000e+01 2.400000000000000000e+01
1.560000000000000000e+02 2.400000000000000000e+01
1.580000000000000000e+02 2.400000000000000000e+01
3.700000000000000000e+01 2.500000000000000000e+01
4.000000000000000000e+01 2.500000000000000000e+01
1.560000000000000000e+02 2.500000000000000000e+01
1.580000000000000000e+02 2.500000000000000000e+01
3.700000000000000000e+01 2.600000000000000000e+01
4.000000000000000000e+01 2.600000000000000000e+01
1.560000000000000000e+02 2.600000000000000000e+01
1.580000000000000000e+02 2.600000000000000000e+01
3.700000000000000000e+01 2.700000000000000000e+01
4.000000000000000000e+01 2.700000000000000000e+01
1.560000000000000000e+02 2.700000000000000000e+01
1.580000000000000000e+02 2.700000000000000000e+01
3.700000000000000000e+01 2.800000000000000000e+01
4.000000000000000000e+01 2.800000000000000000e+01
1.560000000000000000e+02 2.800000000000000000e+01
1.580000000000000000e+02 2.800000000000000000e+01
3.700000000000000000e+01 2.900000000000000000e+01
4.000000000000000000e+01 2.900000000000000000e+01
1.560000000000000000e+02 2.900000000000000000e+01
1.580000000000000000e+02 2.900000000000000000e+01
3.700000000000000000e+01 3.000000000000000000e+01
4.000000000000000000e+01 3.000000000000000000e+01
1.560000000000000000e+02 3.000000000000000000e+01
1.580000000000000000e+02 3.000000000000000000e+01
3.700000000000000000e+01 3.100000000000000000e+01
4.000000000000000000e+01 3.100000000000000000e+01
1.560000000000000000e+02 3.100000000000000000e+01
1.580000000000000000e+02 3.100000000000000000e+01
3.700000000000000000e+01 3.200000000000000000e+01
4.000000000000000000e+01 3.200000000000000000e+01
1.560000000000000000e+02 3.200000000000000000e+01
1.580000000000000000e+02 3.200000000000000000e+01
3.700000000000000000e+01 3.300000000000000000e+01
3.900000000000000000e+01 3.300000000000000000e+01
1.560000000000000000e+02 3.300000000000000000e+01
1.580000000000000000e+02 3.300000000000000000e+01
3.700000000000000000e+01 3.400000000000000000e+01
3.900000000000000000e+01 3.400000000000000000e+01
1.560000000000000000e+02 3.400000000000000000e+01
1.580000000000000000e+02 3.400000000000000000e+01
3.700000000000000000e+01 3.500000000000000000e+01
3.900000000000000000e+01 3.500000000000000000e+01
1.560000000000000000e+02 3.500000000000000000e+01
1.580000000000000000e+02 3.500000000000000000e+01
3.700000000000000000e+01 3.600000000000000000e+01
3.900000000000000000e+01 3.600000000000000000e+01
1.560000000000000000e+02 3.600000000000000000e+01
1.580000000000000000e+02 3.600000000000000000e+01
3.700000000000000000e+01 3.700000000000000000e+01
3.900000000000000000e+01 3.700000000000000000e+01
1.560000000000000000e+02 3.700000000000000000e+01
1.580000000000000000e+02 3.700000000000000000e+01
3.700000000000000000e+01 3.800000000000000000e+01
3.900000000000000000e+01 3.800000000000000000e+01
1.560000000000000000e+02 3.800000000000000000e+01
1.580000000000000000e+02 3.800000000000000000e+01
3.700000000000000000e+01 3.900000000000000000e+01
3.900000000000000000e+01 3.900000000000000000e+01
1.560000000000000000e+02 3.900000000000000000e+01
1.580000000000000000e+02 3.900000000000000000e+01
3.700000000000000000e+01 4.000000000000000000e+01
3.800000000000000000e+01 4.000000000000000000e+01
3.900000000000000000e+01 4.000000000000000000e+01
1.560000000000000000e+02 4.000000000000000000e+01
1.580000000000000000e+02 4.000000000000000000e+01
3.800000000000000000e+01 4.100000000000000000e+01
3.900000000000000000e+01 4.100000000000000000e+01
1.560000000000000000e+02 4.100000000000000000e+01
1.580000000000000000e+02 4.100000000000000000e+01
3.800000000000000000e+01 4.200000000000000000e+01
3.900000000000000000e+01 4.200000000000000000e+01
1.560000000000000000e+02 4.200000000000000000e+01
1.580000000000000000e+02 4.200000000000000000e+01
3.800000000000000000e+01 4.300000000000000000e+01
3.900000000000000000e+01 4.300000000000000000e+01
1.560000000000000000e+02 4.300000000000000000e+01
1.580000000000000000e+02 4.300000000000000000e+01
3.800000000000000000e+01 4.400000000000000000e+01
3.900000000000000000e+01 4.400000000000000000e+01
1.560000000000000000e+02 4.400000000000000000e+01
1.580000000000000000e+02 4.400000000000000000e+01
3.800000000000000000e+01 4.500000000000000000e+01
3.900000000000000000e+01 4.500000000000000000e+01
1.560000000000000000e+02 4.500000000000000000e+01
1.580000000000000000e+02 4.500000000000000000e+01
3.800000000000000000e+01 4.600000000000000000e+01
3.900000000000000000e+01 4.600000000000000000e+01
1.560000000000000000e+02 4.600000000000000000e+01
1.580000000000000000e+02 4.600000000000000000e+01
3.800000000000000000e+01 4.700000000000000000e+01
3.900000000000000000e+01 4.700000000000000000e+01
1.560000000000000000e+02 4.700000000000000000e+01
1.580000000000000000e+02 4.700000000000000000e+01
3.800000000000000000e+01 4.800000000000000000e+01
3.900000000000000000e+01 4.800000000000000000e+01
1.560000000000000000e+02 4.800000000000000000e+01
1.570000000000000000e+02 4.800000000000000000e+01
3.800000000000000000e+01 4.900000000000000000e+01
3.900000000000000000e+01 4.900000000000000000e+01
1.570000000000000000e+02 4.900000000000000000e+01
3.800000000000000000e+01 5.000000000000000000e+01
3.900000000000000000e+01 5.000000000000000000e+01
3.800000000000000000e+01 5.100000000000000000e+01
3.900000000000000000e+01 5.100000000000000000e+01
1.570000000000000000e+02 5.100000000000000000e+01
3.800000000000000000e+01 5.200000000000000000e+01
3.900000000000000000e+01 5.200000000000000000e+01
1.570000000000000000e+02 5.200000000000000000e+01
3.800000000000000000e+01 5.300000000000000000e+01
1.570000000000000000e+02 5.300000000000000000e+01
3.800000000000000000e+01 5.400000000000000000e+01
