1.750000000000000000e+02 7.300000000000000000e+01
1.750000000000000000e+02 7.400000000000000000e+01
1.750000000000000000e+02 7.500000000000000000e+01
1.750000000000000000e+02 7.600000000000000000e+01
1.740000000000000000e+02 7.700000000000000000e+01
1.750000000000000000e+02 7.700000000000000000e+01
1.700000000000000000e+02 7.800000000000000000e+01
1.710000000000000000e+02 7.800000000000000000e+01
1.740000000000000000e+02 7.800000000000000000e+01
1.750000000000000000e+02 7.800000000000000000e+01
1.790000000000000000e+02 7.800000000000000000e+01
1.800000000000000000e+02 7.800000000000000000e+01
1.840000000000000000e+02 7.800000000000000000e+01
1.850000000000000000e+02 7.800000000000000000e+01
1.860000000000000000e+02 7.800000000000000000e+01
1.870000000000000000e+02 7.800000000000000000e+01
1.880000000000000000e+02 7.800000000000000000e+01
1.890000000000000000e+02 7.800000000000000000e+01
1.700000000000000000e+02 7.900000000000000000e+01
1.710000000000000000e+02 7.900000000000000000e+01
1.740000000000000000e+02 7.900000000000000000e+01
1.750000000000000000e+02 7.900000000000000000e+01
1.790000000000000000e+02 7.900000000000000000e+01
1.800000000000000000e+02 7.900000000000000000e+01
1.840000000000000000e+02 7.900000000000000000e+01
1.850000000000000000e+02 7.900000000000000000e+01
1.860000000000000000e+02 7.900000000000000000e+01
1.870000000000000000e+02 7.900000000000000000e+01
1.880000000000000000e+02 7.900000000000000000e+01
1.890000000000000000e+02 7.900000000000000000e+01
1.710000000000000000e+02 8.000000000000000000e+01
1.720000000000000000e+02 8.000000000000000000e+01
1.740000000000000000e+02 8.000000000000000000e+01
1.750000000000000000e+02 8.000000000000000000e+01
1.780000000000000000e+02 8.000000000000000000e+01
1.790000000000000000e+02 8.000000000000000000e+01
1.840000000000000000e+02 8.000000000000000000e+01
1.850000000000000000e+02 8.000000000000000000e+01
1.710000000000000000e+02 8.100000000000000000e+01
1.720000000000000000e+02 8.100000000000000000e+01
1.740000000000000000e+02 8.100000000000000000e+01
1.750000000000000000e+02 8.100000000000000000e+01
1.780000000000000000e+02 8.100000000000000000e+01
1.790000000000000000e+02 8.100000000000000000e+01
1.830000000000000000e+02 8.100000000000000000e+01
1.840000000000000000e+02 8.100000000000000000e+01
1.710000000000000000e+02 8.200000000000000000e+01
1.720000000000000000e+02 8.200000000000000000e+01
1.740000000000000000e+02 8.200000000000000000e+01
1.750000000000000000e+02 8.200000000000000000e+01
1.780000000000000000e+02 8.200000000000000000e+01
1.790000000000000000e+02 8.200000000000000000e+01
1.830000000000000000e+02 8.200000000000000000e+01
1.840000000000000000e+02 8.200000000000000000e+01
1.860000000000000000e+02 8.200000000000000000e+01
1.870000000000000000e+02 8.200000000000000000e+01
1.880000000000000000e+02 8.200000000000000000e+01
1.720000000000000000e+02 8.300000000000000000e+01
1.730000000000000000e+02 8.300000000000000000e+01
1.740000000000000000e+02 8.300000000000000000e+01
1.750000000000000000e+02 8.300000000000000000e+01
1.770000000000000000e+02 8.300000000000000000e+01
1.780000000000000000e+02 8.300000000000000000e+01
1.830000000000000000e+02 8.300000000000000000e+01
1.840000000000000000e+02 8.300000000000000000e+01
1.850000000000000000e+02 8.300000000000000000e+01
1.860000000000000000e+02 8.300000000000000000e+01
1.870000000000000000e+02 8.300000000000000000e+01
1.880000000000000000e+02 8.300000000000000000e+01
1.890000000000000000e+02 8.300000000000000000e+01
1.720000000000000000e+02 8.400000000000000000e+01
1.730000000000000000e+02 8.400000000000000000e+01
1.740000000000000000e+02 8.400000000000000000e+01
1.750000000000000000e+02 8.400000000000000000e+01
1.770000000000000000e+02 8.400000000000000000e+01
1.780000000000000000e+02 8.400000000000000000e+01
1.830000000000000000e+02 8.400000000000000000e+01
1.840000000000000000e+02 8.400000000000000000e+01
1.890000000000000000e+02 8.400000000000000000e+01
1.900000000000000000e+02 8.400000000000000000e+01
1.720000000000000000e+02 8.500000000000000000e+01
1.730000000000000000e+02 8.500000000000000000e+01
1.740000000000000000e+02 8.500000000000000000e+01
1.750000000000000000e+02 8.500000000000000000e+01
1.770000000000000000e+02 8.500000000000000000e+01
1.780000000000000000e+02 8.500000000000000000e+01
1.890000000000000000e+02 8.500000000000000000e+01
1.900000000000000000e+02 8.500000000000000000e+01
1.730000000000000000e+02 8.600000000000000000e+01
1.740000000000000000e+02 8.600000000000000000e+01
1.750000000000000000e+02 8.600000000000000000e+01
1.760000000000000000e+02 8.600000000000000000e+01
1.770000000000000000e+02 8.600000000000000000e+01
1.890000000000000000e+02 8.600000000000000000e+01
1.900000000000000000e+02 8.600000000000000000e+01
1.730000000000000000e+02 8.700000000000000000e+01
1.740000000000000000e+02 8.700000000000000000e+01
1.750000000000000000e+02 8.700000000000000000e+01
1.760000000000000000e+02 8.700000000000000000e+01
1.770000000000000000e+02 8.700000000000000000e+01
1.830000000000000000e+02 8.700000000000000000e+01
1.840000000000000000e+02 8.700000000000000000e+01
1.890000000000000000e+02 8.700000000000000000e+01
1.900000000000000000e+02 8.700000000000000000e+01
1.730000000000000000e+02 8.800000000000000000e+01
1.740000000000000000e+02 8.800000000000000000e+01
1.750000000000000000e+02 8.800000000000000000e+01
1.760000000000000000e+02 8.800000000000000000e+01
1.770000000000000000e+02 8.800000000000000000e+01
1.830000000000000000e+02 8.800000000000000000e+01
1.840000000000000000e+02 8.800000000000000000e+01
1.890000000000000000e+02 8.800000000000000000e+01
1.900000000000000000e+02 8.800000000000000000e+01
1.740000000000000000e+02 8.900000000000000000e+01
1.750000000000000000e+02 8.900000000000000000e+01
1.760000000000000000e+02 8.900000000000000000e+01
1.840000000000000000e+02 8.900000000000000000e+01
1.850000000000000000e+02 8.900000000000000000e+01
1.860000000000000000e+02 8.900000000000000000e+01
1.870000000000000000e+02 8.900000000000000000e+01
1.880000000000000000e+02 8.900000000000000000e+01
1.890000000000000000e+02 8.900000000000000000e+01
1.740000000000000000e+02 9.000000000000000000e+01
1.750000000000000000e+02 9.000000000000000000e+01
1.760000000000000000e+02 9.000000000000000000e+01
1.850000000000000000e+02 9.000000000000000000e+01
1.860000000000000000e+02 9.000000000000000000e+01
1.870000000000000000e+02 9.000000000000000000e+01
1.880000000000000000e+02 9.000000000000000000e+01
1.740000000000000000e+02 9.100000000000000000e+01
1.760000000000000000e+02 9.100000000000000000e+01
1.740000000000000000e+02 9.200000000000000000e+01
1.760000000000000000e+02 9.200000000000000000e+01
2.400000000000000000e+01 9.300000000000000000e+01
1.730000000000000000e+02 9.300000000000000000e+01
1.740000000000000000e+02 9.300000000000000000e+01
1.760000000000000000e+02 9.300000000000000000e+01
2.400000000000000000e+01 9.400000000000000000e+01
9.900000000000000000e+01 9.400000000000000000e+01
1.730000000000000000e+02 9.400000000000000000e+01
1.760000000000000000e+02 9.400000000000000000e+01
2.400000000000000000e+01 9.500000000000000000e+01
2.500000000000000000e+01 9.500000000000000000e+01
9.900000000000000000e+01 9.500000000000000000e+01
1.230000000000000000e+02 9.500000000000000000e+01
1.240000000000000000e+02 9.500000000000000000e+01
1.250000000000000000e+02 9.500000000000000000e+01
1.260000000000000000e+02 9.500000000000000000e+01
1.270000000000000000e+02 9.500000000000000000e+01
1.730000000000000000e+02 9.500000000000000000e+01
1.760000000000000000e+02 9.500000000000000000e+01
9.000000000000000000e+00 9.600000000000000000e+01
2.400000000000000000e+01 9.600000000000000000e+01
2.500000000000000000e+01 9.600000000000000000e+01
4.900000000000000000e+01 9.600000000000000000e+01
5.200000000000000000e+01 9.600000000000000000e+01
5.300000000000000000e+01 9.600000000000000000e+01
9.800000000000000000e+01 9.600000000000000000e+01
9.900000000000000000e+01 9.600000000000000000e+01
1.210000000000000000e+02 9.600000000000000000e+01
1.220000000000000000e+02 9.600000000000000000e+01
1.230000000000000000e+02 9.600000000000000000e+01
1.240000000000000000e+02 9.600000000000000000e+01
1.250000000000000000e+02 9.600000000000000000e+01
1.260000000000000000e+02 9.600000000000000000e+01
1.270000000000000000e+02 9.600000000000000000e+01
1.280000000000000000e+02 9.600000000000000000e+01
1.290000000000000000e+02 9.600000000000000000e+01
1.300000000000000000e+02 9.600000000000000000e+01
1.570000000000000000e+02 9.600000000000000000e+01
1.580000000000000000e+02 9.600000000000000000e+01
1.730000000000000000e+02 9.600000000000000000e+01
1.760000000000000000e+02 9.600000000000000000e+01
1.980000000000000000e+02 9.600000000000000000e+01
1.990000000000000000e+02 9.600000000000000000e+01
9.000000000000000000e+00 9.700000000000000000e+01
2.300000000000000000e+01 9.700000000000000000e+01
2.400000000000000000e+01 9.700000000000000000e+01
2.500000000000000000e+01 9.700000000000000000e+01
4.800000000000000000e+01 9.700000000000000000e+01
4.900000000000000000e+01 9.700000000000000000e+01
5.000000000000000000e+01 9.700000000000000000e+01
5.100000000000000000e+01 9.700000000000000000e+01
5.200000000000000000e+01 9.700000000000000000e+01
5.300000000000000000e+01 9.700000000000000000e+01
5.400000000000000000e+01 9.700000000000000000e+01
5.500000000000000000e+01 9.700000000000000000e+01
9.800000000000000000e+01 9.700000000000000000e+01
9.900000000000000000e+01 9.700000000000000000e+01
1.190000000000000000e+02 9.700000000000000000e+01
1.200000000000000000e+02 9.700000000000000000e+01
1.210000000000000000e+02 9.700000000000000000e+01
1.220000000000000000e+02 9.700000000000000000e+01
1.230000000000000000e+02 9.700000000000000000e+01
1.280000000000000000e+02 9.700000000000000000e+01
1.290000000000000000e+02 9.700000000000000000e+01
1.300000000000000000e+02 9.700000000000000000e+01
1.310000000000000000e+02 9.700000000000000000e+01
1.320000000000000000e+02 9.700000000000000000e+01
1.570000000000000000e+02 9.700000000000000000e+01
1.580000000000000000e+02 9.700000000000000000e+01
1.730000000000000000e+02 9.700000000000000000e+01
1.760000000000000000e+02 9.700000000000000000e+01
1.970000000000000000e+02 9.700000000000000000e+01
1.980000000000000000e+02 9.700000000000000000e+01
1.990000000000000000e+02 9.700000000000000000e+01
7.000000000000000000e+00 9.800000000000000000e+01
8.000000000000000000e+00 9.800000000000000000e+01
9.000000000000000000e+00 9.800000000000000000e+01
1.000000000000000000e+01 9.800000000000000000e+01
2.300000000000000000e+01 9.800000000000000000e+01
2.500000000000000000e+01 9.800000000000000000e+01
4.100000000000000000e+01 9.800000000000000000e+01
4.200000000000000000e+01 9.800000000000000000e+01
4.300000000000000000e+01 9.800000000000000000e+01
4.400000000000000000e+01 9.800000000000000000e+01
4.600000000000000000e+01 9.800000000000000000e+01
4.700000000000000000e+01 9.800000000000000000e+01
4.800000000000000000e+01 9.800000000000000000e+01
4.900000000000000000e+01 9.800000000000000000e+01
5.300000000000000000e+01 9.800000000000000000e+01
5.400000000000000000e+01 9.800000000000000000e+01
5.500000000000000000e+01 9.800000000000000000e+01
5.600000000000000000e+01 9.800000000000000000e+01
5.700000000000000000e+01 9.800000000000000000e+01
5.800000000000000000e+01 9.800000000000000000e+01
8.100000000000000000e+01 9.800000000000000000e+01
8.200000000000000000e+01 9.800000000000000000e+01
8.300000000000000000e+01 9.800000000000000000e+01
8.400000000000000000e+01 9.800000000000000000e+01
9.800000000000000000e+01 9.800000000000000000e+01
9.900000000000000000e+01 9.800000000000000000e+01
1.140000000000000000e+02 9.800000000000000000e+01
1.150000000000000000e+02 9.800000000000000000e+01
1.160000000000000000e+02 9.800000000000000000e+01
1.170000000000000000e+02 9.800000000000000000e+01
1.180000000000000000e+02 9.800000000000000000e+01
1.190000000000000000e+02 9.800000000000000000e+01
1.210000000000000000e+02 9.800000000000000000e+01
1.320000000000000000e+02 9.800000000000000000e+01
1.330000000000000000e+02 9.800000000000000000e+01
1.370000000000000000e+02 9.800000000000000000e+01
1.430000000000000000e+02 9.800000000000000000e+01
1.450000000000000000e+02 9.800000000000000000e+01
1.460000000000000000e+02 9.800000000000000000e+01
1.570000000000000000e+02 9.800000000000000000e+01
1.580000000000000000e+02 9.800000000000000000e+01
1.730000000000000000e+02 9.800000000000000000e+01
1.760000000000000000e+02 9.800000000000000000e+01
1.950000000000000000e+02 9.800000000000000000e+01
1.960000000000000000e+02 9.800000000000000000e+01
1.970000000000000000e+02 9.800000000000000000e+01
