1.380000000000000000e+02 7.500000000000000000e+01
1.910000000000000000e+02 7.500000000000000000e+01
1.910000000000000000e+02 7.600000000000000000e+01
1.380000000000000000e+02 7.700000000000000000e+01
1.380000000000000000e+02 7.800000000000000000e+01
1.910000000000000000e+02 7.800000000000000000e+01
1.390000000000000000e+02 7.900000000000000000e+01
1.580000000000000000e+02 7.900000000000000000e+01
1.900000000000000000e+02 7.900000000000000000e+01
1.060000000000000000e+02 8.000000000000000000e+01
1.070000000000000000e+02 8.000000000000000000e+01
1.380000000000000000e+02 8.000000000000000000e+01
1.390000000000000000e+02 8.000000000000000000e+01
1.580000000000000000e+02 8.000000000000000000e+01
1.590000000000000000e+02 8.000000000000000000e+01
1.900000000000000000e+02 8.000000000000000000e+01
1.910000000000000000e+02 8.000000000000000000e+01
3.300000000000000000e+01 8.100000000000000000e+01
8.500000000000000000e+01 8.100000000000000000e+01
1.050000000000000000e+02 8.100000000000000000e+01
1.060000000000000000e+02 8.100000000000000000e+01
1.070000000000000000e+02 8.100000000000000000e+01
1.390000000000000000e+02 8.100000000000000000e+01
1.570000000000000000e+02 8.100000000000000000e+01
1.580000000000000000e+02 8.100000000000000000e+01
1.590000000000000000e+02 8.100000000000000000e+01
1.910000000000000000e+02 8.100000000000000000e+01
3.200000000000000000e+01 8.200000000000000000e+01
3.300000000000000000e+01 8.200000000000000000e+01
8.500000000000000000e+01 8.200000000000000000e+01
8.600000000000000000e+01 8.200000000000000000e+01
1.040000000000000000e+02 8.200000000000000000e+01
1.070000000000000000e+02 8.200000000000000000e+01
1.380000000000000000e+02 8.200000000000000000e+01
1.590000000000000000e+02 8.200000000000000000e+01
1.600000000000000000e+02 8.200000000000000000e+01
1.900000000000000000e+02 8.200000000000000000e+01
1.910000000000000000e+02 8.200000000000000000e+01
3.200000000000000000e+01 8.300000000000000000e+01
3.300000000000000000e+01 8.300000000000000000e+01
8.500000000000000000e+01 8.300000000000000000e+01
8.600000000000000000e+01 8.300000000000000000e+01
1.080000000000000000e+02 8.300000000000000000e+01
1.100000000000000000e+02 8.300000000000000000e+01
1.110000000000000000e+02 8.300000000000000000e+01
1.200000000000000000e+02 8.300000000000000000e+01
1.250000000000000000e+02 8.300000000000000000e+01
1.260000000000000000e+02 8.300000000000000000e+01
1.280000000000000000e+02 8.300000000000000000e+01
1.380000000000000000e+02 8.300000000000000000e+01
1.390000000000000000e+02 8.300000000000000000e+01
1.570000000000000000e+02 8.300000000000000000e+01
1.600000000000000000e+02 8.300000000000000000e+01
1.610000000000000000e+02 8.300000000000000000e+01
1.900000000000000000e+02 8.300000000000000000e+01
1.920000000000000000e+02 8.300000000000000000e+01
3.200000000000000000e+01 8.400000000000000000e+01
8.600000000000000000e+01 8.400000000000000000e+01
1.100000000000000000e+02 8.400000000000000000e+01
1.110000000000000000e+02 8.400000000000000000e+01
1.190000000000000000e+02 8.400000000000000000e+01
1.200000000000000000e+02 8.400000000000000000e+01
1.240000000000000000e+02 8.400000000000000000e+01
1.250000000000000000e+02 8.400000000000000000e+01
1.260000000000000000e+02 8.400000000000000000e+01
1.280000000000000000e+02 8.400000000000000000e+01
1.290000000000000000e+02 8.400000000000000000e+01
1.380000000000000000e+02 8.400000000000000000e+01
1.390000000000000000e+02 8.400000000000000000e+01
1.560000000000000000e+02 8.400000000000000000e+01
1.570000000000000000e+02 8.400000000000000000e+01
1.610000000000000000e+02 8.400000000000000000e+01
1.920000000000000000e+02 8.400000000000000000e+01
3.200000000000000000e+01 8.500000000000000000e+01
3.300000000000000000e+01 8.500000000000000000e+01
8.500000000000000000e+01 8.500000000000000000e+01
1.080000000000000000e+02 8.500000000000000000e+01
1.110000000000000000e+02 8.500000000000000000e+01
1.180000000000000000e+02 8.500000000000000000e+01
1.190000000000000000e+02 8.500000000000000000e+01
1.230000000000000000e+02 8.500000000000000000e+01
1.240000000000000000e+02 8.500000000000000000e+01
1.280000000000000000e+02 8.500000000000000000e+01
1.290000000000000000e+02 8.500000000000000000e+01
1.300000000000000000e+02 8.500000000000000000e+01
1.370000000000000000e+02 8.500000000000000000e+01
1.560000000000000000e+02 8.500000000000000000e+01
1.610000000000000000e+02 8.500000000000000000e+01
1.900000000000000000e+02 8.500000000000000000e+01
1.920000000000000000e+02 8.500000000000000000e+01
3.300000000000000000e+01 8.600000000000000000e+01
8.600000000000000000e+01 8.600000000000000000e+01
1.080000000000000000e+02 8.600000000000000000e+01
1.110000000000000000e+02 8.600000000000000000e+01
1.120000000000000000e+02 8.600000000000000000e+01
1.290000000000000000e+02 8.600000000000000000e+01
1.390000000000000000e+02 8.600000000000000000e+01
1.560000000000000000e+02 8.600000000000000000e+01
1.610000000000000000e+02 8.600000000000000000e+01
1.900000000000000000e+02 8.600000000000000000e+01
1.920000000000000000e+02 8.600000000000000000e+01
3.200000000000000000e+01 8.700000000000000000e+01
3.300000000000000000e+01 8.700000000000000000e+01
8.500000000000000000e+01 8.700000000000000000e+01
8.600000000000000000e+01 8.700000000000000000e+01
1.080000000000000000e+02 8.700000000000000000e+01
1.180000000000000000e+02 8.700000000000000000e+01
1.190000000000000000e+02 8.700000000000000000e+01
1.290000000000000000e+02 8.700000000000000000e+01
1.300000000000000000e+02 8.700000000000000000e+01
1.370000000000000000e+02 8.700000000000000000e+01
1.390000000000000000e+02 8.700000000000000000e+01
1.610000000000000000e+02 8.700000000000000000e+01
1.620000000000000000e+02 8.700000000000000000e+01
1.900000000000000000e+02 8.700000000000000000e+01
1.920000000000000000e+02 8.700000000000000000e+01
3.100000000000000000e+01 8.800000000000000000e+01
3.200000000000000000e+01 8.800000000000000000e+01
3.300000000000000000e+01 8.800000000000000000e+01
8.500000000000000000e+01 8.800000000000000000e+01
8.700000000000000000e+01 8.800000000000000000e+01
1.080000000000000000e+02 8.800000000000000000e+01
1.090000000000000000e+02 8.800000000000000000e+01
1.120000000000000000e+02 8.800000000000000000e+01
1.170000000000000000e+02 8.800000000000000000e+01
1.180000000000000000e+02 8.800000000000000000e+01
1.290000000000000000e+02 8.800000000000000000e+01
1.370000000000000000e+02 8.800000000000000000e+01
1.390000000000000000e+02 8.800000000000000000e+01
1.560000000000000000e+02 8.800000000000000000e+01
1.620000000000000000e+02 8.800000000000000000e+01
1.900000000000000000e+02 8.800000000000000000e+01
1.920000000000000000e+02 8.800000000000000000e+01
3.100000000000000000e+01 8.900000000000000000e+01
3.300000000000000000e+01 8.900000000000000000e+01
8.500000000000000000e+01 8.900000000000000000e+01
1.090000000000000000e+02 8.900000000000000000e+01
1.120000000000000000e+02 8.900000000000000000e+01
1.290000000000000000e+02 8.900000000000000000e+01
1.370000000000000000e+02 8.900000000000000000e+01
1.390000000000000000e+02 8.900000000000000000e+01
1.550000000000000000e+02 8.900000000000000000e+01
1.620000000000000000e+02 8.900000000000000000e+01
1.900000000000000000e+02 8.900000000000000000e+01
1.920000000000000000e+02 8.900000000000000000e+01
3.300000000000000000e+01 9.000000000000000000e+01
8.500000000000000000e+01 9.000000000000000000e+01
8.700000000000000000e+01 9.000000000000000000e+01
1.130000000000000000e+02 9.000000000000000000e+01
1.170000000000000000e+02 9.000000000000000000e+01
1.280000000000000000e+02 9.000000000000000000e+01
1.370000000000000000e+02 9.000000000000000000e+01
1.390000000000000000e+02 9.000000000000000000e+01
1.550000000000000000e+02 9.000000000000000000e+01
1.620000000000000000e+02 9.000000000000000000e+01
1.900000000000000000e+02 9.000000000000000000e+01
1.920000000000000000e+02 9.000000000000000000e+01
3.100000000000000000e+01 9.100000000000000000e+01
3.300000000000000000e+01 9.100000000000000000e+01
8.500000000000000000e+01 9.100000000000000000e+01
8.700000000000000000e+01 9.100000000000000000e+01
1.090000000000000000e+02 9.100000000000000000e+01
1.130000000000000000e+02 9.100000000000000000e+01
1.140000000000000000e+02 9.100000000000000000e+01
1.160000000000000000e+02 9.100000000000000000e+01
1.170000000000000000e+02 9.100000000000000000e+01
1.260000000000000000e+02 9.100000000000000000e+01
1.270000000000000000e+02 9.100000000000000000e+01
1.370000000000000000e+02 9.100000000000000000e+01
1.390000000000000000e+02 9.100000000000000000e+01
1.550000000000000000e+02 9.100000000000000000e+01
1.620000000000000000e+02 9.100000000000000000e+01
1.630000000000000000e+02 9.100000000000000000e+01
1.900000000000000000e+02 9.100000000000000000e+01
1.920000000000000000e+02 9.100000000000000000e+01
3.100000000000000000e+01 9.200000000000000000e+01
3.300000000000000000e+01 9.200000000000000000e+01
8.400000000000000000e+01 9.200000000000000000e+01
8.700000000000000000e+01 9.200000000000000000e+01
1.090000000000000000e+02 9.200000000000000000e+01
1.130000000000000000e+02 9.200000000000000000e+01
1.140000000000000000e+02 9.200000000000000000e+01
1.170000000000000000e+02 9.200000000000000000e+01
1.260000000000000000e+02 9.200000000000000000e+01
1.370000000000000000e+02 9.200000000000000000e+01
1.390000000000000000e+02 9.200000000000000000e+01
1.550000000000000000e+02 9.200000000000000000e+01
1.630000000000000000e+02 9.200000000000000000e+01
1.900000000000000000e+02 9.200000000000000000e+01
1.920000000000000000e+02 9.200000000000000000e+01
3.100000000000000000e+01 9.300000000000000000e+01
8.400000000000000000e+01 9.300000000000000000e+01
1.100000000000000000e+02 9.300000000000000000e+01
1.140000000000000000e+02 9.300000000000000000e+01
1.160000000000000000e+02 9.300000000000000000e+01
1.170000000000000000e+02 9.300000000000000000e+01
1.250000000000000000e+02 9.300000000000000000e+01
1.370000000000000000e+02 9.300000000000000000e+01
1.390000000000000000e+02 9.300000000000000000e+01
1.630000000000000000e+02 9.300000000000000000e+01
1.900000000000000000e+02 9.300000000000000000e+01
1.920000000000000000e+02 9.300000000000000000e+01
3.100000000000000000e+01 9.400000000000000000e+01
3.400000000000000000e+01 9.400000000000000000e+01
8.400000000000000000e+01 9.400000000000000000e+01
8.700000000000000000e+01 9.400000000000000000e+01
1.140000000000000000e+02 9.400000000000000000e+01
1.150000000000000000e+02 9.400000000000000000e+01
1.230000000000000000e+02 9.400000000000000000e+01
1.250000000000000000e+02 9.400000000000000000e+01
1.260000000000000000e+02 9.400000000000000000e+01
1.270000000000000000e+02 9.400000000000000000e+01
1.280000000000000000e+02 9.400000000000000000e+01
1.290000000000000000e+02 9.400000000000000000e+01
1.300000000000000000e+02 9.400000000000000000e+01
1.370000000000000000e+02 9.400000000000000000e+01
1.390000000000000000e+02 9.400000000000000000e+01
1.550000000000000000e+02 9.400000000000000000e+01
1.630000000000000000e+02 9.400000000000000000e+01
1.900000000000000000e+02 9.400000000000000000e+01
1.920000000000000000e+02 9.400000000000000000e+01
3.100000000000000000e+01 9.500000000000000000e+01
3.400000000000000000e+01 9.500000000000000000e+01
8.700000000000000000e+01 9.500000000000000000e+01
1.100000000000000000e+02 9.500000000000000000e+01
1.140000000000000000e+02 9.500000000000000000e+01
1.150000000000000000e+02 9.500000000000000000e+01
1.160000000000000000e+02 9.500000000000000000e+01
1.230000000000000000e+02 9.500000000000000000e+01
1.240000000000000000e+02 9.500000000000000000e+01
1.250000000000000000e+02 9.500000000000000000e+01
1.270000000000000000e+02 9.500000000000000000e+01
1.280000000000000000e+02 9.500000000000000000e+01
1.290000000000000000e+02 9.500000000000000000e+01
1.300000000000000000e+02 9.500000000000000000e+01
1.370000000000000000e+02 9.500000000000000000e+01
1.390000000000000000e+02 9.500000000000000000e+01
1.540000000000000000e+02 9.500000000000000000e+01
1.630000000000000000e+02 9.500000000000000000e+01
1.900000000000000000e+02 9.500000000000000000e+01
1.920000000000000000e+02 9.500000000000000000e+01
3.100000000000000000e+01 9.600000000000000000e+01
8.400000000000000000e+01 9.600000000000000000e+01
8.700000000000000000e+01 9.600000000000000000e+01
1.100000000000000000e+02 9.600000000000000000e+01
1.370000000000000000e+02 9.600000000000000000e+01
1.390000000000000000e+02 9.600000000000000000e+01
1.540000000000000000e+02 9.600000000000000000e+01
1.630000000000000000e+02 9.600000000000000000e+01
1.900000000000000000e+02 9.600000000000000000e+01
1.920000000000000000e+02 9.600000000000000000e+01
3.100000000000000000e+01 9.700000000000000000e+01
3.400000000000000000e+01 9.700000000000000000e+01
5.400000000000000000e+01 9.700000000000000000e+01
8.400000000000000000e+01 9.700000000000000000e+01
8.700000000000000000e+01 9.700000000000000000e+01
1.100000000000000000e+02 9.700000000000000000e+01
1.370000000000000000e+02 9.700000000000000000e+01
1.390000000000000000e+02 9.700000000000000000e+01
1.540000000000000000e+02 9.700000000000000000e+01
1.640000000000000000e+02 9.700000000000000000e+01
1.900000000000000000e+02 9.700000000000000000e+01
1.920000000000000000e+02 9.700000000000000000e+01
1.000000000000000000e+00 9.800000000000000000e+01
3.100000000000000000e+01 9.800000000000000000e+01
3.400000000000000000e+01 9.800000000000000000e+01
5.000000000000000000e+01 9.800000000000000000e+01
5.100000000000000000e+01 9.800000000000000000e+01
5.200000000000000000e+01 9.800000000000000000e+01
5.400000000000000000e+01 9.800000000000000000e+01
8.400000000000000000e+01 9.800000000000000000e+01
8.700000000000000000e+01 9.800000000000000000e+01
1.030000000000000000e+02 9.800000000000000000e+01
1.040000000000000000e+02 9.800000000000000000e+01
1.110000000000000000e+02 9.800000000000000000e+01
1.370000000000000000e+02 9.800000000000000000e+01
1.390000000000000000e+02 9.800000000000000000e+01
1.530000000000000000e+02 9.800000000000000000e+01
1.540000000000000000e+02 9.800000000000000000e+01
1.640000000000000000e+02 9.800000000000000000e+01
1.900000000000000000e+02 9.800000000000000000e+01
1.920000000000000000e+02 9.800000000000000000e+01
