1.800000000000000000e+01 2.500000000000000000e+01
1.900000000000000000e+01 2.500000000000000000e+01
2.000000000000000000e+01 2.500000000000000000e+01
2.100000000000000000e+01 2.500000000000000000e+01
2.200000000000000000e+01 2.500000000000000000e+01
2.300000000000000000e+01 2.500000000000000000e+01
2.400000000000000000e+01 2.500000000000000000e+01
2.500000000000000000e+01 2.500000000000000000e+01
2.600000000000000000e+01 2.500000000000000000e+01
2.700000000000000000e+01 2.500000000000000000e+01
2.800000000000000000e+01 2.500000000000000000e+01
2.900000000000000000e+01 2.500000000000000000e+01
3.000000000000000000e+01 2.500000000000000000e+01
3.100000000000000000e+01 2.500000000000000000e+01
3.200000000000000000e+01 2.500000000000000000e+01
1.800000000000000000e+01 2.600000000000000000e+01
3.200000000000000000e+01 2.600000000000000000e+01
1.800000000000000000e+01 2.700000000000000000e+01
3.200000000000000000e+01 2.700000000000000000e+01
1.800000000000000000e+01 2.800000000000000000e+01
3.200000000000000000e+01 2.800000000000000000e+01
1.800000000000000000e+01 2.900000000000000000e+01
3.200000000000000000e+01 2.900000000000000000e+01
1.800000000000000000e+01 3.000000000000000000e+01
3.200000000000000000e+01 3.000000000000000000e+01
1.800000000000000000e+01 3.100000000000000000e+01
3.200000000000000000e+01 3.100000000000000000e+01
1.800000000000000000e+01 3.200000000000000000e+01
3.200000000000000000e+01 3.200000000000000000e+01
1.800000000000000000e+01 3.300000000000000000e+01
3.200000000000000000e+01 3.300000000000000000e+01
2.960000000000000000e+02 3.300000000000000000e+01
3.490000000000000000e+02 3.300000000000000000e+01
1.800000000000000000e+01 3.400000000000000000e+01
3.200000000000000000e+01 3.400000000000000000e+01
1.340000000000000000e+02 3.400000000000000000e+01
2.960000000000000000e+02 3.400000000000000000e+01
3.490000000000000000e+02 3.400000000000000000e+01
5.030000000000000000e+02 3.400000000000000000e+01
6.070000000000000000e+02 3.400000000000000000e+01
6.600000000000000000e+02 3.400000000000000000e+01
1.800000000000000000e+01 3.500000000000000000e+01
3.200000000000000000e+01 3.500000000000000000e+01
1.340000000000000000e+02 3.500000000000000000e+01
2.960000000000000000e+02 3.500000000000000000e+01
3.490000000000000000e+02 3.500000000000000000e+01
5.030000000000000000e+02 3.500000000000000000e+01
6.070000000000000000e+02 3.500000000000000000e+01
6.600000000000000000e+02 3.500000000000000000e+01
7.130000000000000000e+02 3.500000000000000000e+01
1.800000000000000000e+01 3.600000000000000000e+01
3.200000000000000000e+01 3.600000000000000000e+01
7.900000000000000000e+01 3.600000000000000000e+01
1.340000000000000000e+02 3.600000000000000000e+01
2.960000000000000000e+02 3.600000000000000000e+01
3.490000000000000000e+02 3.600000000000000000e+01
5.030000000000000000e+02 3.600000000000000000e+01
6.070000000000000000e+02 3.600000000000000000e+01
6.600000000000000000e+02 3.600000000000000000e+01
7.130000000000000000e+02 3.600000000000000000e+01
1.800000000000000000e+01 3.700000000000000000e+01
3.200000000000000000e+01 3.700000000000000000e+01
4.000000000000000000e+01 3.700000000000000000e+01
4.300000000000000000e+01 3.700000000000000000e+01
7.900000000000000000e+01 3.700000000000000000e+01
1.340000000000000000e+02 3.700000000000000000e+01
2.420000000000000000e+02 3.700000000000000000e+01
2.960000000000000000e+02 3.700000000000000000e+01
3.490000000000000000e+02 3.700000000000000000e+01
5.030000000000000000e+02 3.700000000000000000e+01
6.070000000000000000e+02 3.700000000000000000e+01
6.600000000000000000e+02 3.700000000000000000e+01
7.130000000000000000e+02 3.700000000000000000e+01
1.800000000000000000e+01 3.800000000000000000e+01
3.200000000000000000e+01 3.800000000000000000e+01
4.000000000000000000e+01 3.800000000000000000e+01
7.900000000000000000e+01 3.800000000000000000e+01
1.340000000000000000e+02 3.800000000000000000e+01
2.420000000000000000e+02 3.800000000000000000e+01
2.960000000000000000e+02 3.800000000000000000e+01
3.490000000000000000e+02 3.800000000000000000e+01
5.030000000000000000e+02 3.800000000000000000e+01
6.070000000000000000e+02 3.800000000000000000e+01
6.600000000000000000e+02 3.800000000000000000e+01
7.130000000000000000e+02 3.800000000000000000e+01
1.800000000000000000e+01 3.900000000000000000e+01
3.200000000000000000e+01 3.900000000000000000e+01
4.000000000000000000e+01 3.900000000000000000e+01
7.900000000000000000e+01 3.900000000000000000e+01
1.340000000000000000e+02 3.900000000000000000e+01
2.420000000000000000e+02 3.900000000000000000e+01
2.960000000000000000e+02 3.900000000000000000e+01
3.490000000000000000e+02 3.900000000000000000e+01
4.510000000000000000e+02 3.900000000000000000e+01
5.030000000000000000e+02 3.900000000000000000e+01
6.070000000000000000e+02 3.900000000000000000e+01
6.600000000000000000e+02 3.900000000000000000e+01
7.130000000000000000e+02 3.900000000000000000e+01
1.800000000000000000e+01 4.000000000000000000e+01
3.200000000000000000e+01 4.000000000000000000e+01
4.000000000000000000e+01 4.000000000000000000e+01
7.900000000000000000e+01 4.000000000000000000e+01
1.340000000000000000e+02 4.000000000000000000e+01
1.870000000000000000e+02 4.000000000000000000e+01
2.420000000000000000e+02 4.000000000000000000e+01
2.960000000000000000e+02 4.000000000000000000e+01
3.490000000000000000e+02 4.000000000000000000e+01
4.510000000000000000e+02 4.000000000000000000e+01
5.030000000000000000e+02 4.000000000000000000e+01
5.550000000000000000e+02 4.000000000000000000e+01
6.070000000000000000e+02 4.000000000000000000e+01
6.600000000000000000e+02 4.000000000000000000e+01
7.130000000000000000e+02 4.000000000000000000e+01
1.800000000000000000e+01 4.100000000000000000e+01
3.200000000000000000e+01 4.100000000000000000e+01
4.000000000000000000e+01 4.100000000000000000e+01
7.900000000000000000e+01 4.100000000000000000e+01
1.340000000000000000e+02 4.100000000000000000e+01
1.870000000000000000e+02 4.100000000000000000e+01
2.420000000000000000e+02 4.100000000000000000e+01
2.960000000000000000e+02 4.100000000000000000e+01
3.490000000000000000e+02 4.100000000000000000e+01
4.000000000000000000e+02 4.100000000000000000e+01
4.510000000000000000e+02 4.100000000000000000e+01
5.030000000000000000e+02 4.100000000000000000e+01
5.550000000000000000e+02 4.100000000000000000e+01
6.070000000000000000e+02 4.100000000000000000e+01
6.600000000000000000e+02 4.100000000000000000e+01
7.130000000000000000e+02 4.100000000000000000e+01
1.800000000000000000e+01 4.200000000000000000e+01
3.200000000000000000e+01 4.200000000000000000e+01
4.000000000000000000e+01 4.200000000000000000e+01
7.900000000000000000e+01 4.200000000000000000e+01
1.340000000000000000e+02 4.200000000000000000e+01
1.870000000000000000e+02 4.200000000000000000e+01
2.420000000000000000e+02 4.200000000000000000e+01
2.960000000000000000e+02 4.200000000000000000e+01
3.490000000000000000e+02 4.200000000000000000e+01
4.000000000000000000e+02 4.200000000000000000e+01
4.510000000000000000e+02 4.200000000000000000e+01
5.030000000000000000e+02 4.200000000000000000e+01
5.550000000000000000e+02 4.200000000000000000e+01
6.070000000000000000e+02 4.200000000000000000e+01
6.600000000000000000e+02 4.200000000000000000e+01
7.130000000000000000e+02 4.200000000000000000e+01
1.800000000000000000e+01 4.300000000000000000e+01
3.200000000000000000e+01 4.300000000000000000e+01
4.000000000000000000e+01 4.300000000000000000e+01
7.900000000000000000e+01 4.300000000000000000e+01
1.870000000000000000e+02 4.300000000000000000e+01
2.410000000000000000e+02 4.300000000000000000e+01
2.420000000000000000e+02 4.300000000000000000e+01
3.490000000000000000e+02 4.300000000000000000e+01
3.990000000000000000e+02 4.300000000000000000e+01
4.000000000000000000e+02 4.300000000000000000e+01
4.510000000000000000e+02 4.300000000000000000e+01
4.520000000000000000e+02 4.300000000000000000e+01
5.030000000000000000e+02 4.300000000000000000e+01
5.550000000000000000e+02 4.300000000000000000e+01
6.070000000000000000e+02 4.300000000000000000e+01
6.600000000000000000e+02 4.300000000000000000e+01
7.130000000000000000e+02 4.300000000000000000e+01
1.800000000000000000e+01 4.400000000000000000e+01
3.200000000000000000e+01 4.400000000000000000e+01
4.000000000000000000e+01 4.400000000000000000e+01
7.900000000000000000e+01 4.400000000000000000e+01
1.330000000000000000e+02 4.400000000000000000e+01
1.870000000000000000e+02 4.400000000000000000e+01
1.880000000000000000e+02 4.400000000000000000e+01
2.410000000000000000e+02 4.400000000000000000e+01
3.490000000000000000e+02 4.400000000000000000e+01
3.990000000000000000e+02 4.400000000000000000e+01
4.000000000000000000e+02 4.400000000000000000e+01
4.510000000000000000e+02 4.400000000000000000e+01
4.520000000000000000e+02 4.400000000000000000e+01
5.030000000000000000e+02 4.400000000000000000e+01
5.540000000000000000e+02 4.400000000000000000e+01
5.550000000000000000e+02 4.400000000000000000e+01
6.070000000000000000e+02 4.400000000000000000e+01
6.600000000000000000e+02 4.400000000000000000e+01
7.130000000000000000e+02 4.400000000000000000e+01
1.800000000000000000e+01 4.500000000000000000e+01
3.200000000000000000e+01 4.500000000000000000e+01
4.000000000000000000e+01 4.500000000000000000e+01
4.300000000000000000e+01 4.500000000000000000e+01
7.900000000000000000e+01 4.500000000000000000e+01
1.330000000000000000e+02 4.500000000000000000e+01
1.870000000000000000e+02 4.500000000000000000e+01
1.880000000000000000e+02 4.500000000000000000e+01
2.410000000000000000e+02 4.500000000000000000e+01
3.490000000000000000e+02 4.500000000000000000e+01
3.990000000000000000e+02 4.500000000000000000e+01
4.000000000000000000e+02 4.500000000000000000e+01
4.520000000000000000e+02 4.500000000000000000e+01
5.030000000000000000e+02 4.500000000000000000e+01
5.540000000000000000e+02 4.500000000000000000e+01
6.600000000000000000e+02 4.500000000000000000e+01
7.130000000000000000e+02 4.500000000000000000e+01
1.800000000000000000e+01 4.600000000000000000e+01
3.200000000000000000e+01 4.600000000000000000e+01
7.800000000000000000e+01 4.600000000000000000e+01
1.330000000000000000e+02 4.600000000000000000e+01
1.880000000000000000e+02 4.600000000000000000e+01
2.410000000000000000e+02 4.600000000000000000e+01
3.990000000000000000e+02 4.600000000000000000e+01
4.520000000000000000e+02 4.600000000000000000e+01
5.540000000000000000e+02 4.600000000000000000e+01
6.600000000000000000e+02 4.600000000000000000e+01
1.800000000000000000e+01 4.700000000000000000e+01
3.200000000000000000e+01 4.700000000000000000e+01
7.800000000000000000e+01 4.700000000000000000e+01
1.880000000000000000e+02 4.700000000000000000e+01
3.660000000000000000e+02 4.700000000000000000e+01
3.990000000000000000e+02 4.700000000000000000e+01
4.520000000000000000e+02 4.700000000000000000e+01
5.540000000000000000e+02 4.700000000000000000e+01
6.080000000000000000e+02 4.700000000000000000e+01
7.140000000000000000e+02 4.700000000000000000e+01
1.800000000000000000e+01 4.800000000000000000e+01
3.200000000000000000e+01 4.800000000000000000e+01
1.880000000000000000e+02 4.800000000000000000e+01
2.950000000000000000e+02 4.800000000000000000e+01
2.970000000000000000e+02 4.800000000000000000e+01
3.480000000000000000e+02 4.800000000000000000e+01
3.670000000000000000e+02 4.800000000000000000e+01
6.080000000000000000e+02 4.800000000000000000e+01
7.140000000000000000e+02 4.800000000000000000e+01
1.800000000000000000e+01 4.900000000000000000e+01
3.200000000000000000e+01 4.900000000000000000e+01
4.100000000000000000e+01 4.900000000000000000e+01
1.490000000000000000e+02 4.900000000000000000e+01
1.520000000000000000e+02 4.900000000000000000e+01
2.950000000000000000e+02 4.900000000000000000e+01
2.970000000000000000e+02 4.900000000000000000e+01
3.130000000000000000e+02 4.900000000000000000e+01
3.480000000000000000e+02 4.900000000000000000e+01
4.670000000000000000e+02 4.900000000000000000e+01
4.690000000000000000e+02 4.900000000000000000e+01
5.020000000000000000e+02 4.900000000000000000e+01
5.190000000000000000e+02 4.900000000000000000e+01
6.060000000000000000e+02 4.900000000000000000e+01
6.080000000000000000e+02 4.900000000000000000e+01
6.260000000000000000e+02 4.900000000000000000e+01
6.590000000000000000e+02 4.900000000000000000e+01
7.140000000000000000e+02 4.900000000000000000e+01
1.800000000000000000e+01 5.000000000000000000e+01
3.200000000000000000e+01 5.000000000000000000e+01
3.800000000000000000e+01 5.000000000000000000e+01
3.900000000000000000e+01 5.000000000000000000e+01
4.000000000000000000e+01 5.000000000000000000e+01
4.200000000000000000e+01 5.000000000000000000e+01
9.400000000000000000e+01 5.000000000000000000e+01
9.700000000000000000e+01 5.000000000000000000e+01
1.530000000000000000e+02 5.000000000000000000e+01
2.040000000000000000e+02 5.000000000000000000e+01
2.050000000000000000e+02 5.000000000000000000e+01
2.970000000000000000e+02 5.000000000000000000e+01
3.100000000000000000e+02 5.000000000000000000e+01
3.150000000000000000e+02 5.000000000000000000e+01
3.500000000000000000e+02 5.000000000000000000e+01
3.650000000000000000e+02 5.000000000000000000e+01
4.650000000000000000e+02 5.000000000000000000e+01
4.660000000000000000e+02 5.000000000000000000e+01
5.020000000000000000e+02 5.000000000000000000e+01
5.200000000000000000e+02 5.000000000000000000e+01
5.210000000000000000e+02 5.000000000000000000e+01
5.690000000000000000e+02 5.000000000000000000e+01
5.730000000000000000e+02 5.000000000000000000e+01
6.080000000000000000e+02 5.000000000000000000e+01
6.210000000000000000e+02 5.000000000000000000e+01
6.590000000000000000e+02 5.000000000000000000e+01
6.770000000000000000e+02 5.000000000000000000e+01
7.120000000000000000e+02 5.000000000000000000e+01
7.140000000000000000e+02 5.000000000000000000e+01
7.290000000000000000e+02 5.000000000000000000e+01
1.800000000000000000e+01 5.100000000000000000e+01
3.200000000000000000e+01 5.100000000000000000e+01
4.400000000000000000e+01 5.100000000000000000e+01
9.200000000000000000e+01 5.100000000000000000e+01
1.350000000000000000e+02 5.100000000000000000e+01
1.360000000000000000e+02 5.100000000000000000e+01
2.020000000000000000e+02 5.100000000000000000e+01
2.980000000000000000e+02 5.100000000000000000e+01
3.080000000000000000e+02 5.100000000000000000e+01
3.160000000000000000e+02 5.100000000000000000e+01
3.500000000000000000e+02 5.100000000000000000e+01
3.680000000000000000e+02 5.100000000000000000e+01
3.880000000000000000e+02 5.100000000000000000e+01
4.120000000000000000e+02 5.100000000000000000e+01
4.400000000000000000e+02 5.100000000000000000e+01
4.500000000000000000e+02 5.100000000000000000e+01
4.710000000000000000e+02 5.100000000000000000e+01
4.920000000000000000e+02 5.100000000000000000e+01
5.020000000000000000e+02 5.100000000000000000e+01
5.040000000000000000e+02 5.100000000000000000e+01
5.150000000000000000e+02 5.100000000000000000e+01
5.430000000000000000e+02 5.100000000000000000e+01
5.670000000000000000e+02 5.100000000000000000e+01
6.190000000000000000e+02 5.100000000000000000e+01
6.200000000000000000e+02 5.100000000000000000e+01
6.270000000000000000e+02 5.100000000000000000e+01
6.740000000000000000e+02 5.100000000000000000e+01
6.750000000000000000e+02 5.100000000000000000e+01
7.120000000000000000e+02 5.100000000000000000e+01
7.260000000000000000e+02 5.100000000000000000e+01
1.800000000000000000e+01 5.200000000000000000e+01
3.200000000000000000e+01 5.200000000000000000e+01
3.700000000000000000e+01 5.200000000000000000e+01
4.500000000000000000e+01 5.200000000000000000e+01
4.600000000000000000e+01 5.200000000000000000e+01
8.000000000000000000e+01 5.200000000000000000e+01
8.100000000000000000e+01 5.200000000000000000e+01
8.900000000000000000e+01 5.200000000000000000e+01
1.200000000000000000e+02 5.200000000000000000e+01
1.230000000000000000e+02 5.200000000000000000e+01
1.240000000000000000e+02 5.200000000000000000e+01
1.320000000000000000e+02 5.200000000000000000e+01
1.350000000000000000e+02 5.200000000000000000e+01
1.370000000000000000e+02 5.200000000000000000e+01
1.410000000000000000e+02 5.200000000000000000e+01
1.420000000000000000e+02 5.200000000000000000e+01
1.760000000000000000e+02 5.200000000000000000e+01
1.990000000000000000e+02 5.200000000000000000e+01
2.080000000000000000e+02 5.200000000000000000e+01
2.300000000000000000e+02 5.200000000000000000e+01
2.430000000000000000e+02 5.200000000000000000e+01
2.440000000000000000e+02 5.200000000000000000e+01
2.520000000000000000e+02 5.200000000000000000e+01
2.850000000000000000e+02 5.200000000000000000e+01
2.980000000000000000e+02 5.200000000000000000e+01
2.990000000000000000e+02 5.200000000000000000e+01
3.000000000000000000e+02 5.200000000000000000e+01
3.010000000000000000e+02 5.200000000000000000e+01
3.060000000000000000e+02 5.200000000000000000e+01
3.170000000000000000e+02 5.200000000000000000e+01
3.500000000000000000e+02 5.200000000000000000e+01
3.620000000000000000e+02 5.200000000000000000e+01
3.690000000000000000e+02 5.200000000000000000e+01
3.890000000000000000e+02 5.200000000000000000e+01
4.020000000000000000e+02 5.200000000000000000e+01
4.090000000000000000e+02 5.200000000000000000e+01
4.100000000000000000e+02 5.200000000000000000e+01
4.390000000000000000e+02 5.200000000000000000e+01
4.500000000000000000e+02 5.200000000000000000e+01
4.530000000000000000e+02 5.200000000000000000e+01
4.540000000000000000e+02 5.200000000000000000e+01
4.610000000000000000e+02 5.200000000000000000e+01
4.620000000000000000e+02 5.200000000000000000e+01
4.900000000000000000e+02 5.200000000000000000e+01
5.040000000000000000e+02 5.200000000000000000e+01
5.050000000000000000e+02 5.200000000000000000e+01
5.120000000000000000e+02 5.200000000000000000e+01
5.130000000000000000e+02 5.200000000000000000e+01
5.440000000000000000e+02 5.200000000000000000e+01
5.570000000000000000e+02 5.200000000000000000e+01
5.650000000000000000e+02 5.200000000000000000e+01
5.940000000000000000e+02 5.200000000000000000e+01
5.980000000000000000e+02 5.200000000000000000e+01
6.090000000000000000e+02 5.200000000000000000e+01
6.100000000000000000e+02 5.200000000000000000e+01
6.160000000000000000e+02 5.200000000000000000e+01
6.170000000000000000e+02 5.200000000000000000e+01
6.280000000000000000e+02 5.200000000000000000e+01
6.470000000000000000e+02 5.200000000000000000e+01
6.480000000000000000e+02 5.200000000000000000e+01
6.610000000000000000e+02 5.200000000000000000e+01
6.710000000000000000e+02 5.200000000000000000e+01
7.150000000000000000e+02 5.200000000000000000e+01
7.240000000000000000e+02 5.200000000000000000e+01
1.500000000000000000e+01 5.300000000000000000e+01
1.600000000000000000e+01 5.300000000000000000e+01
1.700000000000000000e+01 5.300000000000000000e+01
1.800000000000000000e+01 5.300000000000000000e+01
3.200000000000000000e+01 5.300000000000000000e+01
3.300000000000000000e+01 5.300000000000000000e+01
3.400000000000000000e+01 5.300000000000000000e+01
3.500000000000000000e+01 5.300000000000000000e+01
4.700000000000000000e+01 5.300000000000000000e+01
4.800000000000000000e+01 5.300000000000000000e+01
4.900000000000000000e+01 5.300000000000000000e+01
5.300000000000000000e+01 5.300000000000000000e+01
5.600000000000000000e+01 5.300000000000000000e+01
6.500000000000000000e+01 5.300000000000000000e+01
6.600000000000000000e+01 5.300000000000000000e+01
6.900000000000000000e+01 5.300000000000000000e+01
8.000000000000000000e+01 5.300000000000000000e+01
8.200000000000000000e+01 5.300000000000000000e+01
8.300000000000000000e+01 5.300000000000000000e+01
8.500000000000000000e+01 5.300000000000000000e+01
8.600000000000000000e+01 5.300000000000000000e+01
1.040000000000000000e+02 5.300000000000000000e+01
1.050000000000000000e+02 5.300000000000000000e+01
1.060000000000000000e+02 5.300000000000000000e+01
1.070000000000000000e+02 5.300000000000000000e+01
1.080000000000000000e+02 5.300000000000000000e+01
1.090000000000000000e+02 5.300000000000000000e+01
1.100000000000000000e+02 5.300000000000000000e+01
1.110000000000000000e+02 5.300000000000000000e+01
1.120000000000000000e+02 5.300000000000000000e+01
1.140000000000000000e+02 5.300000000000000000e+01
1.580000000000000000e+02 5.300000000000000000e+01
1.590000000000000000e+02 5.300000000000000000e+01
1.600000000000000000e+02 5.300000000000000000e+01
1.630000000000000000e+02 5.300000000000000000e+01
1.750000000000000000e+02 5.300000000000000000e+01
1.860000000000000000e+02 5.300000000000000000e+01
1.900000000000000000e+02 5.300000000000000000e+01
1.920000000000000000e+02 5.300000000000000000e+01
1.960000000000000000e+02 5.300000000000000000e+01
1.970000000000000000e+02 5.300000000000000000e+01
2.090000000000000000e+02 5.300000000000000000e+01
2.190000000000000000e+02 5.300000000000000000e+01
2.280000000000000000e+02 5.300000000000000000e+01
2.290000000000000000e+02 5.300000000000000000e+01
2.310000000000000000e+02 5.300000000000000000e+01
2.400000000000000000e+02 5.300000000000000000e+01
2.450000000000000000e+02 5.300000000000000000e+01
2.480000000000000000e+02 5.300000000000000000e+01
2.490000000000000000e+02 5.300000000000000000e+01
2.500000000000000000e+02 5.300000000000000000e+01
2.640000000000000000e+02 5.300000000000000000e+01
2.650000000000000000e+02 5.300000000000000000e+01
2.660000000000000000e+02 5.300000000000000000e+01
2.690000000000000000e+02 5.300000000000000000e+01
2.700000000000000000e+02 5.300000000000000000e+01
2.720000000000000000e+02 5.300000000000000000e+01
2.730000000000000000e+02 5.300000000000000000e+01
2.740000000000000000e+02 5.300000000000000000e+01
2.750000000000000000e+02 5.300000000000000000e+01
2.760000000000000000e+02 5.300000000000000000e+01
2.770000000000000000e+02 5.300000000000000000e+01
2.790000000000000000e+02 5.300000000000000000e+01
2.800000000000000000e+02 5.300000000000000000e+01
2.810000000000000000e+02 5.300000000000000000e+01
2.870000000000000000e+02 5.300000000000000000e+01
3.030000000000000000e+02 5.300000000000000000e+01
3.040000000000000000e+02 5.300000000000000000e+01
3.190000000000000000e+02 5.300000000000000000e+01
3.200000000000000000e+02 5.300000000000000000e+01
3.360000000000000000e+02 5.300000000000000000e+01
3.390000000000000000e+02 5.300000000000000000e+01
3.520000000000000000e+02 5.300000000000000000e+01
3.570000000000000000e+02 5.300000000000000000e+01
3.710000000000000000e+02 5.300000000000000000e+01
3.740000000000000000e+02 5.300000000000000000e+01
3.780000000000000000e+02 5.300000000000000000e+01
3.790000000000000000e+02 5.300000000000000000e+01
3.980000000000000000e+02 5.300000000000000000e+01
4.040000000000000000e+02 5.300000000000000000e+01
4.050000000000000000e+02 5.300000000000000000e+01
4.220000000000000000e+02 5.300000000000000000e+01
4.230000000000000000e+02 5.300000000000000000e+01
4.240000000000000000e+02 5.300000000000000000e+01
4.290000000000000000e+02 5.300000000000000000e+01
4.310000000000000000e+02 5.300000000000000000e+01
4.340000000000000000e+02 5.300000000000000000e+01
4.370000000000000000e+02 5.300000000000000000e+01
4.430000000000000000e+02 5.300000000000000000e+01
4.530000000000000000e+02 5.300000000000000000e+01
4.580000000000000000e+02 5.300000000000000000e+01
4.770000000000000000e+02 5.300000000000000000e+01
4.780000000000000000e+02 5.300000000000000000e+01
4.860000000000000000e+02 5.300000000000000000e+01
4.940000000000000000e+02 5.300000000000000000e+01
5.060000000000000000e+02 5.300000000000000000e+01
5.070000000000000000e+02 5.300000000000000000e+01
5.080000000000000000e+02 5.300000000000000000e+01
5.090000000000000000e+02 5.300000000000000000e+01
5.250000000000000000e+02 5.300000000000000000e+01
5.260000000000000000e+02 5.300000000000000000e+01
5.410000000000000000e+02 5.300000000000000000e+01
5.420000000000000000e+02 5.300000000000000000e+01
5.530000000000000000e+02 5.300000000000000000e+01
5.560000000000000000e+02 5.300000000000000000e+01
5.580000000000000000e+02 5.300000000000000000e+01
5.610000000000000000e+02 5.300000000000000000e+01
5.780000000000000000e+02 5.300000000000000000e+01
5.790000000000000000e+02 5.300000000000000000e+01
5.850000000000000000e+02 5.300000000000000000e+01
6.050000000000000000e+02 5.300000000000000000e+01
6.110000000000000000e+02 5.300000000000000000e+01
6.310000000000000000e+02 5.300000000000000000e+01
6.320000000000000000e+02 5.300000000000000000e+01
6.340000000000000000e+02 5.300000000000000000e+01
6.400000000000000000e+02 5.300000000000000000e+01
6.460000000000000000e+02 5.300000000000000000e+01
6.610000000000000000e+02 5.300000000000000000e+01
6.620000000000000000e+02 5.300000000000000000e+01
6.660000000000000000e+02 5.300000000000000000e+01
6.670000000000000000e+02 5.300000000000000000e+01
6.700000000000000000e+02 5.300000000000000000e+01
7.040000000000000000e+02 5.300000000000000000e+01
7.180000000000000000e+02 5.300000000000000000e+01
5.900000000000000000e+01 5.400000000000000000e+01
6.000000000000000000e+01 5.400000000000000000e+01
6.200000000000000000e+01 5.400000000000000000e+01
6.300000000000000000e+01 5.400000000000000000e+01
8.000000000000000000e+01 5.400000000000000000e+01
1.280000000000000000e+02 5.400000000000000000e+01
1.290000000000000000e+02 5.400000000000000000e+01
1.730000000000000000e+02 5.400000000000000000e+01
1.790000000000000000e+02 5.400000000000000000e+01
1.890000000000000000e+02 5.400000000000000000e+01
2.110000000000000000e+02 5.400000000000000000e+01
2.120000000000000000e+02 5.400000000000000000e+01
2.130000000000000000e+02 5.400000000000000000e+01
2.140000000000000000e+02 5.400000000000000000e+01
2.150000000000000000e+02 5.400000000000000000e+01
2.160000000000000000e+02 5.400000000000000000e+01
2.230000000000000000e+02 5.400000000000000000e+01
2.340000000000000000e+02 5.400000000000000000e+01
2.390000000000000000e+02 5.400000000000000000e+01
2.890000000000000000e+02 5.400000000000000000e+01
2.900000000000000000e+02 5.400000000000000000e+01
2.910000000000000000e+02 5.400000000000000000e+01
2.920000000000000000e+02 5.400000000000000000e+01
2.930000000000000000e+02 5.400000000000000000e+01
3.260000000000000000e+02 5.400000000000000000e+01
3.310000000000000000e+02 5.400000000000000000e+01
3.320000000000000000e+02 5.400000000000000000e+01
3.330000000000000000e+02 5.400000000000000000e+01
3.340000000000000000e+02 5.400000000000000000e+01
3.750000000000000000e+02 5.400000000000000000e+01
3.760000000000000000e+02 5.400000000000000000e+01
3.770000000000000000e+02 5.400000000000000000e+01
3.820000000000000000e+02 5.400000000000000000e+01
3.830000000000000000e+02 5.400000000000000000e+01
3.840000000000000000e+02 5.400000000000000000e+01
3.850000000000000000e+02 5.400000000000000000e+01
4.440000000000000000e+02 5.400000000000000000e+01
4.450000000000000000e+02 5.400000000000000000e+01
4.870000000000000000e+02 5.400000000000000000e+01
4.960000000000000000e+02 5.400000000000000000e+01
4.970000000000000000e+02 5.400000000000000000e+01
4.980000000000000000e+02 5.400000000000000000e+01
5.280000000000000000e+02 5.400000000000000000e+01
5.300000000000000000e+02 5.400000000000000000e+01
5.310000000000000000e+02 5.400000000000000000e+01
5.380000000000000000e+02 5.400000000000000000e+01
5.390000000000000000e+02 5.400000000000000000e+01
5.400000000000000000e+02 5.400000000000000000e+01
6.390000000000000000e+02 5.400000000000000000e+01
6.430000000000000000e+02 5.400000000000000000e+01
6.440000000000000000e+02 5.400000000000000000e+01
6.450000000000000000e+02 5.400000000000000000e+01
6.550000000000000000e+02 5.400000000000000000e+01
6.610000000000000000e+02 5.400000000000000000e+01
6.640000000000000000e+02 5.400000000000000000e+01
6.650000000000000000e+02 5.400000000000000000e+01
6.830000000000000000e+02 5.400000000000000000e+01
6.850000000000000000e+02 5.400000000000000000e+01
6.860000000000000000e+02 5.400000000000000000e+01
6.870000000000000000e+02 5.400000000000000000e+01
6.880000000000000000e+02 5.400000000000000000e+01
6.890000000000000000e+02 5.400000000000000000e+01
6.900000000000000000e+02 5.400000000000000000e+01
6.920000000000000000e+02 5.400000000000000000e+01
6.970000000000000000e+02 5.400000000000000000e+01
6.980000000000000000e+02 5.400000000000000000e+01
7.060000000000000000e+02 5.400000000000000000e+01
1.800000000000000000e+02 5.500000000000000000e+01
1.810000000000000000e+02 5.500000000000000000e+01
1.830000000000000000e+02 5.500000000000000000e+01
1.840000000000000000e+02 5.500000000000000000e+01
1.890000000000000000e+02 5.500000000000000000e+01
3.440000000000000000e+02 5.500000000000000000e+01
3.450000000000000000e+02 5.500000000000000000e+01
3.460000000000000000e+02 5.500000000000000000e+01
5.470000000000000000e+02 5.500000000000000000e+01
5.500000000000000000e+02 5.500000000000000000e+01
5.510000000000000000e+02 5.500000000000000000e+01
6.010000000000000000e+02 5.500000000000000000e+01
6.530000000000000000e+02 5.500000000000000000e+01
6.540000000000000000e+02 5.500000000000000000e+01
6.560000000000000000e+02 5.500000000000000000e+01
6.570000000000000000e+02 5.500000000000000000e+01
7.090000000000000000e+02 5.500000000000000000e+01
