6.800000000000000000e+01 4.600000000000000000e+01
6.800000000000000000e+01 4.700000000000000000e+01
2.120000000000000000e+02 4.700000000000000000e+01
6.800000000000000000e+01 4.800000000000000000e+01
6.900000000000000000e+01 4.800000000000000000e+01
1.400000000000000000e+02 4.800000000000000000e+01
2.130000000000000000e+02 4.800000000000000000e+01
6.800000000000000000e+01 4.900000000000000000e+01
6.900000000000000000e+01 4.900000000000000000e+01
1.400000000000000000e+02 4.900000000000000000e+01
2.120000000000000000e+02 4.900000000000000000e+01
6.900000000000000000e+01 5.000000000000000000e+01
1.400000000000000000e+02 5.000000000000000000e+01
2.120000000000000000e+02 5.000000000000000000e+01
2.130000000000000000e+02 5.000000000000000000e+01
2.860000000000000000e+02 5.000000000000000000e+01
2.870000000000000000e+02 5.000000000000000000e+01
6.800000000000000000e+01 5.100000000000000000e+01
6.900000000000000000e+01 5.100000000000000000e+01
2.130000000000000000e+02 5.100000000000000000e+01
2.870000000000000000e+02 5.100000000000000000e+01
6.800000000000000000e+01 5.200000000000000000e+01
6.900000000000000000e+01 5.200000000000000000e+01
1.400000000000000000e+02 5.200000000000000000e+01
2.120000000000000000e+02 5.200000000000000000e+01
2.130000000000000000e+02 5.200000000000000000e+01
2.860000000000000000e+02 5.200000000000000000e+01
2.870000000000000000e+02 5.200000000000000000e+01
6.800000000000000000e+01 5.300000000000000000e+01
6.900000000000000000e+01 5.300000000000000000e+01
1.390000000000000000e+02 5.300000000000000000e+01
1.400000000000000000e+02 5.300000000000000000e+01
2.130000000000000000e+02 5.300000000000000000e+01
2.860000000000000000e+02 5.300000000000000000e+01
2.120000000000000000e+02 5.400000000000000000e+01
2.130000000000000000e+02 5.400000000000000000e+01
2.860000000000000000e+02 5.400000000000000000e+01
2.870000000000000000e+02 5.400000000000000000e+01
6.800000000000000000e+01 5.500000000000000000e+01
6.900000000000000000e+01 5.500000000000000000e+01
1.390000000000000000e+02 5.500000000000000000e+01
2.120000000000000000e+02 5.500000000000000000e+01
2.130000000000000000e+02 5.500000000000000000e+01
2.870000000000000000e+02 5.500000000000000000e+01
6.800000000000000000e+01 5.600000000000000000e+01
6.900000000000000000e+01 5.600000000000000000e+01
1.390000000000000000e+02 5.600000000000000000e+01
2.120000000000000000e+02 5.600000000000000000e+01
2.130000000000000000e+02 5.600000000000000000e+01
2.860000000000000000e+02 5.600000000000000000e+01
2.870000000000000000e+02 5.600000000000000000e+01
6.800000000000000000e+01 5.700000000000000000e+01
6.900000000000000000e+01 5.700000000000000000e+01
1.390000000000000000e+02 5.700000000000000000e+01
1.410000000000000000e+02 5.700000000000000000e+01
2.120000000000000000e+02 5.700000000000000000e+01
2.870000000000000000e+02 5.700000000000000000e+01
6.800000000000000000e+01 5.800000000000000000e+01
6.900000000000000000e+01 5.800000000000000000e+01
1.390000000000000000e+02 5.800000000000000000e+01
2.120000000000000000e+02 5.800000000000000000e+01
2.860000000000000000e+02 5.800000000000000000e+01
2.870000000000000000e+02 5.800000000000000000e+01
6.800000000000000000e+01 5.900000000000000000e+01
6.900000000000000000e+01 5.900000000000000000e+01
1.390000000000000000e+02 5.900000000000000000e+01
2.130000000000000000e+02 5.900000000000000000e+01
2.860000000000000000e+02 5.900000000000000000e+01
2.870000000000000000e+02 5.900000000000000000e+01
6.800000000000000000e+01 6.000000000000000000e+01
6.900000000000000000e+01 6.000000000000000000e+01
1.390000000000000000e+02 6.000000000000000000e+01
1.410000000000000000e+02 6.000000000000000000e+01
2.850000000000000000e+02 6.000000000000000000e+01
6.800000000000000000e+01 6.100000000000000000e+01
6.900000000000000000e+01 6.100000000000000000e+01
1.390000000000000000e+02 6.100000000000000000e+01
1.410000000000000000e+02 6.100000000000000000e+01
2.110000000000000000e+02 6.100000000000000000e+01
2.130000000000000000e+02 6.100000000000000000e+01
2.850000000000000000e+02 6.100000000000000000e+01
2.870000000000000000e+02 6.100000000000000000e+01
6.900000000000000000e+01 6.200000000000000000e+01
1.390000000000000000e+02 6.200000000000000000e+01
1.410000000000000000e+02 6.200000000000000000e+01
2.110000000000000000e+02 6.200000000000000000e+01
2.130000000000000000e+02 6.200000000000000000e+01
2.870000000000000000e+02 6.200000000000000000e+01
6.900000000000000000e+01 6.300000000000000000e+01
1.390000000000000000e+02 6.300000000000000000e+01
1.410000000000000000e+02 6.300000000000000000e+01
2.110000000000000000e+02 6.300000000000000000e+01
2.130000000000000000e+02 6.300000000000000000e+01
2.850000000000000000e+02 6.300000000000000000e+01
2.870000000000000000e+02 6.300000000000000000e+01
6.800000000000000000e+01 6.400000000000000000e+01
6.900000000000000000e+01 6.400000000000000000e+01
1.390000000000000000e+02 6.400000000000000000e+01
1.410000000000000000e+02 6.400000000000000000e+01
2.110000000000000000e+02 6.400000000000000000e+01
2.130000000000000000e+02 6.400000000000000000e+01
2.850000000000000000e+02 6.400000000000000000e+01
2.870000000000000000e+02 6.400000000000000000e+01
6.900000000000000000e+01 6.500000000000000000e+01
1.390000000000000000e+02 6.500000000000000000e+01
1.410000000000000000e+02 6.500000000000000000e+01
2.110000000000000000e+02 6.500000000000000000e+01
2.870000000000000000e+02 6.500000000000000000e+01
1.390000000000000000e+02 6.600000000000000000e+01
1.410000000000000000e+02 6.600000000000000000e+01
2.110000000000000000e+02 6.600000000000000000e+01
2.130000000000000000e+02 6.600000000000000000e+01
2.850000000000000000e+02 6.600000000000000000e+01
2.870000000000000000e+02 6.600000000000000000e+01
6.700000000000000000e+01 6.700000000000000000e+01
6.900000000000000000e+01 6.700000000000000000e+01
1.390000000000000000e+02 6.700000000000000000e+01
1.410000000000000000e+02 6.700000000000000000e+01
2.110000000000000000e+02 6.700000000000000000e+01
2.130000000000000000e+02 6.700000000000000000e+01
2.870000000000000000e+02 6.700000000000000000e+01
6.900000000000000000e+01 6.800000000000000000e+01
1.390000000000000000e+02 6.800000000000000000e+01
1.410000000000000000e+02 6.800000000000000000e+01
2.110000000000000000e+02 6.800000000000000000e+01
2.130000000000000000e+02 6.800000000000000000e+01
2.850000000000000000e+02 6.800000000000000000e+01
2.870000000000000000e+02 6.800000000000000000e+01
6.700000000000000000e+01 6.900000000000000000e+01
6.900000000000000000e+01 6.900000000000000000e+01
1.390000000000000000e+02 6.900000000000000000e+01
1.410000000000000000e+02 6.900000000000000000e+01
2.110000000000000000e+02 6.900000000000000000e+01
2.850000000000000000e+02 6.900000000000000000e+01
2.870000000000000000e+02 6.900000000000000000e+01
6.700000000000000000e+01 7.000000000000000000e+01
6.900000000000000000e+01 7.000000000000000000e+01
1.390000000000000000e+02 7.000000000000000000e+01
1.410000000000000000e+02 7.000000000000000000e+01
2.110000000000000000e+02 7.000000000000000000e+01
2.130000000000000000e+02 7.000000000000000000e+01
2.850000000000000000e+02 7.000000000000000000e+01
2.870000000000000000e+02 7.000000000000000000e+01
6.700000000000000000e+01 7.100000000000000000e+01
6.900000000000000000e+01 7.100000000000000000e+01
1.390000000000000000e+02 7.100000000000000000e+01
1.410000000000000000e+02 7.100000000000000000e+01
2.110000000000000000e+02 7.100000000000000000e+01
2.130000000000000000e+02 7.100000000000000000e+01
2.850000000000000000e+02 7.100000000000000000e+01
2.870000000000000000e+02 7.100000000000000000e+01
6.700000000000000000e+01 7.200000000000000000e+01
2.110000000000000000e+02 7.200000000000000000e+01
2.850000000000000000e+02 7.200000000000000000e+01
2.870000000000000000e+02 7.200000000000000000e+01
6.700000000000000000e+01 7.300000000000000000e+01
6.900000000000000000e+01 7.300000000000000000e+01
1.390000000000000000e+02 7.300000000000000000e+01
1.410000000000000000e+02 7.300000000000000000e+01
2.110000000000000000e+02 7.300000000000000000e+01
2.130000000000000000e+02 7.300000000000000000e+01
2.850000000000000000e+02 7.300000000000000000e+01
2.870000000000000000e+02 7.300000000000000000e+01
6.700000000000000000e+01 7.400000000000000000e+01
6.900000000000000000e+01 7.400000000000000000e+01
1.390000000000000000e+02 7.400000000000000000e+01
1.410000000000000000e+02 7.400000000000000000e+01
2.110000000000000000e+02 7.400000000000000000e+01
2.130000000000000000e+02 7.400000000000000000e+01
2.850000000000000000e+02 7.400000000000000000e+01
2.870000000000000000e+02 7.400000000000000000e+01
6.700000000000000000e+01 7.500000000000000000e+01
6.900000000000000000e+01 7.500000000000000000e+01
1.390000000000000000e+02 7.500000000000000000e+01
1.410000000000000000e+02 7.500000000000000000e+01
2.110000000000000000e+02 7.500000000000000000e+01
2.130000000000000000e+02 7.500000000000000000e+01
2.850000000000000000e+02 7.500000000000000000e+01
2.870000000000000000e+02 7.500000000000000000e+01
6.700000000000000000e+01 7.600000000000000000e+01
6.900000000000000000e+01 7.600000000000000000e+01
1.390000000000000000e+02 7.600000000000000000e+01
1.410000000000000000e+02 7.600000000000000000e+01
2.110000000000000000e+02 7.600000000000000000e+01
2.130000000000000000e+02 7.600000000000000000e+01
2.850000000000000000e+02 7.600000000000000000e+01
2.870000000000000000e+02 7.600000000000000000e+01
6.700000000000000000e+01 7.700000000000000000e+01
6.900000000000000000e+01 7.700000000000000000e+01
1.410000000000000000e+02 7.700000000000000000e+01
2.110000000000000000e+02 7.700000000000000000e+01
2.130000000000000000e+02 7.700000000000000000e+01
2.850000000000000000e+02 7.700000000000000000e+01
2.870000000000000000e+02 7.700000000000000000e+01
6.700000000000000000e+01 7.800000000000000000e+01
1.390000000000000000e+02 7.800000000000000000e+01
1.410000000000000000e+02 7.800000000000000000e+01
2.110000000000000000e+02 7.800000000000000000e+01
2.130000000000000000e+02 7.800000000000000000e+01
2.870000000000000000e+02 7.800000000000000000e+01
3.300000000000000000e+02 7.800000000000000000e+01
3.430000000000000000e+02 7.800000000000000000e+01
3.460000000000000000e+02 7.800000000000000000e+01
3.470000000000000000e+02 7.800000000000000000e+01
6.450000000000000000e+02 7.800000000000000000e+01
6.580000000000000000e+02 7.800000000000000000e+01
6.620000000000000000e+02 7.800000000000000000e+01
6.630000000000000000e+02 7.800000000000000000e+01
6.650000000000000000e+02 7.800000000000000000e+01
6.660000000000000000e+02 7.800000000000000000e+01
6.670000000000000000e+02 7.800000000000000000e+01
6.700000000000000000e+01 7.900000000000000000e+01
6.900000000000000000e+01 7.900000000000000000e+01
1.390000000000000000e+02 7.900000000000000000e+01
1.410000000000000000e+02 7.900000000000000000e+01
2.110000000000000000e+02 7.900000000000000000e+01
2.130000000000000000e+02 7.900000000000000000e+01
2.850000000000000000e+02 7.900000000000000000e+01
2.870000000000000000e+02 7.900000000000000000e+01
3.290000000000000000e+02 7.900000000000000000e+01
3.300000000000000000e+02 7.900000000000000000e+01
3.310000000000000000e+02 7.900000000000000000e+01
3.420000000000000000e+02 7.900000000000000000e+01
3.430000000000000000e+02 7.900000000000000000e+01
3.460000000000000000e+02 7.900000000000000000e+01
6.440000000000000000e+02 7.900000000000000000e+01
6.460000000000000000e+02 7.900000000000000000e+01
6.560000000000000000e+02 7.900000000000000000e+01
6.570000000000000000e+02 7.900000000000000000e+01
6.580000000000000000e+02 7.900000000000000000e+01
6.630000000000000000e+02 7.900000000000000000e+01
6.640000000000000000e+02 7.900000000000000000e+01
6.660000000000000000e+02 7.900000000000000000e+01
6.670000000000000000e+02 7.900000000000000000e+01
6.680000000000000000e+02 7.900000000000000000e+01
6.900000000000000000e+01 8.000000000000000000e+01
1.390000000000000000e+02 8.000000000000000000e+01
1.410000000000000000e+02 8.000000000000000000e+01
2.110000000000000000e+02 8.000000000000000000e+01
2.130000000000000000e+02 8.000000000000000000e+01
2.870000000000000000e+02 8.000000000000000000e+01
3.300000000000000000e+02 8.000000000000000000e+01
3.310000000000000000e+02 8.000000000000000000e+01
3.420000000000000000e+02 8.000000000000000000e+01
3.460000000000000000e+02 8.000000000000000000e+01
3.470000000000000000e+02 8.000000000000000000e+01
6.560000000000000000e+02 8.000000000000000000e+01
6.570000000000000000e+02 8.000000000000000000e+01
6.610000000000000000e+02 8.000000000000000000e+01
6.620000000000000000e+02 8.000000000000000000e+01
6.670000000000000000e+02 8.000000000000000000e+01
6.680000000000000000e+02 8.000000000000000000e+01
6.700000000000000000e+01 8.100000000000000000e+01
1.410000000000000000e+02 8.100000000000000000e+01
2.110000000000000000e+02 8.100000000000000000e+01
2.850000000000000000e+02 8.100000000000000000e+01
2.870000000000000000e+02 8.100000000000000000e+01
3.420000000000000000e+02 8.100000000000000000e+01
6.450000000000000000e+02 8.100000000000000000e+01
6.560000000000000000e+02 8.100000000000000000e+01
6.570000000000000000e+02 8.100000000000000000e+01
6.600000000000000000e+02 8.100000000000000000e+01
6.610000000000000000e+02 8.100000000000000000e+01
6.690000000000000000e+02 8.100000000000000000e+01
6.700000000000000000e+01 8.200000000000000000e+01
6.900000000000000000e+01 8.200000000000000000e+01
1.390000000000000000e+02 8.200000000000000000e+01
1.410000000000000000e+02 8.200000000000000000e+01
2.110000000000000000e+02 8.200000000000000000e+01
2.130000000000000000e+02 8.200000000000000000e+01
2.850000000000000000e+02 8.200000000000000000e+01
2.870000000000000000e+02 8.200000000000000000e+01
3.200000000000000000e+02 8.200000000000000000e+01
3.210000000000000000e+02 8.200000000000000000e+01
3.220000000000000000e+02 8.200000000000000000e+01
3.310000000000000000e+02 8.200000000000000000e+01
3.320000000000000000e+02 8.200000000000000000e+01
3.410000000000000000e+02 8.200000000000000000e+01
3.460000000000000000e+02 8.200000000000000000e+01
3.470000000000000000e+02 8.200000000000000000e+01
6.460000000000000000e+02 8.200000000000000000e+01
6.550000000000000000e+02 8.200000000000000000e+01
6.680000000000000000e+02 8.200000000000000000e+01
6.700000000000000000e+01 8.300000000000000000e+01
6.900000000000000000e+01 8.300000000000000000e+01
1.390000000000000000e+02 8.300000000000000000e+01
1.410000000000000000e+02 8.300000000000000000e+01
2.110000000000000000e+02 8.300000000000000000e+01
2.130000000000000000e+02 8.300000000000000000e+01
2.850000000000000000e+02 8.300000000000000000e+01
2.870000000000000000e+02 8.300000000000000000e+01
3.190000000000000000e+02 8.300000000000000000e+01
3.200000000000000000e+02 8.300000000000000000e+01
3.220000000000000000e+02 8.300000000000000000e+01
3.230000000000000000e+02 8.300000000000000000e+01
3.240000000000000000e+02 8.300000000000000000e+01
3.250000000000000000e+02 8.300000000000000000e+01
3.320000000000000000e+02 8.300000000000000000e+01
3.400000000000000000e+02 8.300000000000000000e+01
3.460000000000000000e+02 8.300000000000000000e+01
3.470000000000000000e+02 8.300000000000000000e+01
6.460000000000000000e+02 8.300000000000000000e+01
6.550000000000000000e+02 8.300000000000000000e+01
6.560000000000000000e+02 8.300000000000000000e+01
6.680000000000000000e+02 8.300000000000000000e+01
6.690000000000000000e+02 8.300000000000000000e+01
6.700000000000000000e+01 8.400000000000000000e+01
7.000000000000000000e+01 8.400000000000000000e+01
1.390000000000000000e+02 8.400000000000000000e+01
1.410000000000000000e+02 8.400000000000000000e+01
2.110000000000000000e+02 8.400000000000000000e+01
2.130000000000000000e+02 8.400000000000000000e+01
2.850000000000000000e+02 8.400000000000000000e+01
2.870000000000000000e+02 8.400000000000000000e+01
3.180000000000000000e+02 8.400000000000000000e+01
3.190000000000000000e+02 8.400000000000000000e+01
3.250000000000000000e+02 8.400000000000000000e+01
3.260000000000000000e+02 8.400000000000000000e+01
3.310000000000000000e+02 8.400000000000000000e+01
3.320000000000000000e+02 8.400000000000000000e+01
3.330000000000000000e+02 8.400000000000000000e+01
3.390000000000000000e+02 8.400000000000000000e+01
3.410000000000000000e+02 8.400000000000000000e+01
3.460000000000000000e+02 8.400000000000000000e+01
6.460000000000000000e+02 8.400000000000000000e+01
6.470000000000000000e+02 8.400000000000000000e+01
6.480000000000000000e+02 8.400000000000000000e+01
6.540000000000000000e+02 8.400000000000000000e+01
6.550000000000000000e+02 8.400000000000000000e+01
6.560000000000000000e+02 8.400000000000000000e+01
6.680000000000000000e+02 8.400000000000000000e+01
6.690000000000000000e+02 8.400000000000000000e+01
6.700000000000000000e+01 8.500000000000000000e+01
1.380000000000000000e+02 8.500000000000000000e+01
1.390000000000000000e+02 8.500000000000000000e+01
1.410000000000000000e+02 8.500000000000000000e+01
2.110000000000000000e+02 8.500000000000000000e+01
2.850000000000000000e+02 8.500000000000000000e+01
2.870000000000000000e+02 8.500000000000000000e+01
3.180000000000000000e+02 8.500000000000000000e+01
3.260000000000000000e+02 8.500000000000000000e+01
3.320000000000000000e+02 8.500000000000000000e+01
3.330000000000000000e+02 8.500000000000000000e+01
3.390000000000000000e+02 8.500000000000000000e+01
3.400000000000000000e+02 8.500000000000000000e+01
3.460000000000000000e+02 8.500000000000000000e+01
6.470000000000000000e+02 8.500000000000000000e+01
6.480000000000000000e+02 8.500000000000000000e+01
6.540000000000000000e+02 8.500000000000000000e+01
6.550000000000000000e+02 8.500000000000000000e+01
6.680000000000000000e+02 8.500000000000000000e+01
6.700000000000000000e+01 8.600000000000000000e+01
7.000000000000000000e+01 8.600000000000000000e+01
1.410000000000000000e+02 8.600000000000000000e+01
2.110000000000000000e+02 8.600000000000000000e+01
2.130000000000000000e+02 8.600000000000000000e+01
2.850000000000000000e+02 8.600000000000000000e+01
2.870000000000000000e+02 8.600000000000000000e+01
3.230000000000000000e+02 8.600000000000000000e+01
3.240000000000000000e+02 8.600000000000000000e+01
3.250000000000000000e+02 8.600000000000000000e+01
3.260000000000000000e+02 8.600000000000000000e+01
3.330000000000000000e+02 8.600000000000000000e+01
3.390000000000000000e+02 8.600000000000000000e+01
3.460000000000000000e+02 8.600000000000000000e+01
3.470000000000000000e+02 8.600000000000000000e+01
6.470000000000000000e+02 8.600000000000000000e+01
6.480000000000000000e+02 8.600000000000000000e+01
6.540000000000000000e+02 8.600000000000000000e+01
6.550000000000000000e+02 8.600000000000000000e+01
6.660000000000000000e+02 8.600000000000000000e+01
6.670000000000000000e+02 8.600000000000000000e+01
6.700000000000000000e+01 8.700000000000000000e+01
7.000000000000000000e+01 8.700000000000000000e+01
1.380000000000000000e+02 8.700000000000000000e+01
1.410000000000000000e+02 8.700000000000000000e+01
2.110000000000000000e+02 8.700000000000000000e+01
2.130000000000000000e+02 8.700000000000000000e+01
2.850000000000000000e+02 8.700000000000000000e+01
2.870000000000000000e+02 8.700000000000000000e+01
3.200000000000000000e+02 8.700000000000000000e+01
3.210000000000000000e+02 8.700000000000000000e+01
3.220000000000000000e+02 8.700000000000000000e+01
3.240000000000000000e+02 8.700000000000000000e+01
3.330000000000000000e+02 8.700000000000000000e+01
3.340000000000000000e+02 8.700000000000000000e+01
3.380000000000000000e+02 8.700000000000000000e+01
3.460000000000000000e+02 8.700000000000000000e+01
6.530000000000000000e+02 8.700000000000000000e+01
6.540000000000000000e+02 8.700000000000000000e+01
7.920000000000000000e+02 8.700000000000000000e+01
6.700000000000000000e+01 8.800000000000000000e+01
1.380000000000000000e+02 8.800000000000000000e+01
2.110000000000000000e+02 8.800000000000000000e+01
2.850000000000000000e+02 8.800000000000000000e+01
3.190000000000000000e+02 8.800000000000000000e+01
3.200000000000000000e+02 8.800000000000000000e+01
3.260000000000000000e+02 8.800000000000000000e+01
3.330000000000000000e+02 8.800000000000000000e+01
3.380000000000000000e+02 8.800000000000000000e+01
3.390000000000000000e+02 8.800000000000000000e+01
3.460000000000000000e+02 8.800000000000000000e+01
3.470000000000000000e+02 8.800000000000000000e+01
6.480000000000000000e+02 8.800000000000000000e+01
6.640000000000000000e+02 8.800000000000000000e+01
6.650000000000000000e+02 8.800000000000000000e+01
6.700000000000000000e+01 8.900000000000000000e+01
7.000000000000000000e+01 8.900000000000000000e+01
1.380000000000000000e+02 8.900000000000000000e+01
1.410000000000000000e+02 8.900000000000000000e+01
2.110000000000000000e+02 8.900000000000000000e+01
2.130000000000000000e+02 8.900000000000000000e+01
2.870000000000000000e+02 8.900000000000000000e+01
3.180000000000000000e+02 8.900000000000000000e+01
3.190000000000000000e+02 8.900000000000000000e+01
3.250000000000000000e+02 8.900000000000000000e+01
3.260000000000000000e+02 8.900000000000000000e+01
3.330000000000000000e+02 8.900000000000000000e+01
3.340000000000000000e+02 8.900000000000000000e+01
3.390000000000000000e+02 8.900000000000000000e+01
3.460000000000000000e+02 8.900000000000000000e+01
3.470000000000000000e+02 8.900000000000000000e+01
6.480000000000000000e+02 8.900000000000000000e+01
6.490000000000000000e+02 8.900000000000000000e+01
6.530000000000000000e+02 8.900000000000000000e+01
6.640000000000000000e+02 8.900000000000000000e+01
7.920000000000000000e+02 8.900000000000000000e+01
6.700000000000000000e+01 9.000000000000000000e+01
7.000000000000000000e+01 9.000000000000000000e+01
1.380000000000000000e+02 9.000000000000000000e+01
1.410000000000000000e+02 9.000000000000000000e+01
2.110000000000000000e+02 9.000000000000000000e+01
2.130000000000000000e+02 9.000000000000000000e+01
2.850000000000000000e+02 9.000000000000000000e+01
2.870000000000000000e+02 9.000000000000000000e+01
3.180000000000000000e+02 9.000000000000000000e+01
3.260000000000000000e+02 9.000000000000000000e+01
3.340000000000000000e+02 9.000000000000000000e+01
3.350000000000000000e+02 9.000000000000000000e+01
3.370000000000000000e+02 9.000000000000000000e+01
3.380000000000000000e+02 9.000000000000000000e+01
3.460000000000000000e+02 9.000000000000000000e+01
3.470000000000000000e+02 9.000000000000000000e+01
6.500000000000000000e+02 9.000000000000000000e+01
6.520000000000000000e+02 9.000000000000000000e+01
6.530000000000000000e+02 9.000000000000000000e+01
6.630000000000000000e+02 9.000000000000000000e+01
7.910000000000000000e+02 9.000000000000000000e+01
6.700000000000000000e+01 9.100000000000000000e+01
7.000000000000000000e+01 9.100000000000000000e+01
1.410000000000000000e+02 9.100000000000000000e+01
2.110000000000000000e+02 9.100000000000000000e+01
2.130000000000000000e+02 9.100000000000000000e+01
2.850000000000000000e+02 9.100000000000000000e+01
2.870000000000000000e+02 9.100000000000000000e+01
3.180000000000000000e+02 9.100000000000000000e+01
3.240000000000000000e+02 9.100000000000000000e+01
3.250000000000000000e+02 9.100000000000000000e+01
3.260000000000000000e+02 9.100000000000000000e+01
3.340000000000000000e+02 9.100000000000000000e+01
3.460000000000000000e+02 9.100000000000000000e+01
3.470000000000000000e+02 9.100000000000000000e+01
6.490000000000000000e+02 9.100000000000000000e+01
6.500000000000000000e+02 9.100000000000000000e+01
6.520000000000000000e+02 9.100000000000000000e+01
6.530000000000000000e+02 9.100000000000000000e+01
6.610000000000000000e+02 9.100000000000000000e+01
6.700000000000000000e+01 9.200000000000000000e+01
7.000000000000000000e+01 9.200000000000000000e+01
1.410000000000000000e+02 9.200000000000000000e+01
2.110000000000000000e+02 9.200000000000000000e+01
2.130000000000000000e+02 9.200000000000000000e+01
2.840000000000000000e+02 9.200000000000000000e+01
3.190000000000000000e+02 9.200000000000000000e+01
3.200000000000000000e+02 9.200000000000000000e+01
3.230000000000000000e+02 9.200000000000000000e+01
3.240000000000000000e+02 9.200000000000000000e+01
3.250000000000000000e+02 9.200000000000000000e+01
3.260000000000000000e+02 9.200000000000000000e+01
3.340000000000000000e+02 9.200000000000000000e+01
3.350000000000000000e+02 9.200000000000000000e+01
3.360000000000000000e+02 9.200000000000000000e+01
3.370000000000000000e+02 9.200000000000000000e+01
3.380000000000000000e+02 9.200000000000000000e+01
3.460000000000000000e+02 9.200000000000000000e+01
3.480000000000000000e+02 9.200000000000000000e+01
3.490000000000000000e+02 9.200000000000000000e+01
3.500000000000000000e+02 9.200000000000000000e+01
3.510000000000000000e+02 9.200000000000000000e+01
3.530000000000000000e+02 9.200000000000000000e+01
6.490000000000000000e+02 9.200000000000000000e+01
6.500000000000000000e+02 9.200000000000000000e+01
6.520000000000000000e+02 9.200000000000000000e+01
6.600000000000000000e+02 9.200000000000000000e+01
6.610000000000000000e+02 9.200000000000000000e+01
6.620000000000000000e+02 9.200000000000000000e+01
6.630000000000000000e+02 9.200000000000000000e+01
6.650000000000000000e+02 9.200000000000000000e+01
6.660000000000000000e+02 9.200000000000000000e+01
6.670000000000000000e+02 9.200000000000000000e+01
6.680000000000000000e+02 9.200000000000000000e+01
6.690000000000000000e+02 9.200000000000000000e+01
7.210000000000000000e+02 9.200000000000000000e+01
7.910000000000000000e+02 9.200000000000000000e+01
7.920000000000000000e+02 9.200000000000000000e+01
6.700000000000000000e+01 9.300000000000000000e+01
7.000000000000000000e+01 9.300000000000000000e+01
1.380000000000000000e+02 9.300000000000000000e+01
1.410000000000000000e+02 9.300000000000000000e+01
2.110000000000000000e+02 9.300000000000000000e+01
2.130000000000000000e+02 9.300000000000000000e+01
2.870000000000000000e+02 9.300000000000000000e+01
3.200000000000000000e+02 9.300000000000000000e+01
3.210000000000000000e+02 9.300000000000000000e+01
3.220000000000000000e+02 9.300000000000000000e+01
3.230000000000000000e+02 9.300000000000000000e+01
3.260000000000000000e+02 9.300000000000000000e+01
3.270000000000000000e+02 9.300000000000000000e+01
3.350000000000000000e+02 9.300000000000000000e+01
3.370000000000000000e+02 9.300000000000000000e+01
3.480000000000000000e+02 9.300000000000000000e+01
3.500000000000000000e+02 9.300000000000000000e+01
3.510000000000000000e+02 9.300000000000000000e+01
3.520000000000000000e+02 9.300000000000000000e+01
3.530000000000000000e+02 9.300000000000000000e+01
6.500000000000000000e+02 9.300000000000000000e+01
6.510000000000000000e+02 9.300000000000000000e+01
6.520000000000000000e+02 9.300000000000000000e+01
6.600000000000000000e+02 9.300000000000000000e+01
6.620000000000000000e+02 9.300000000000000000e+01
6.630000000000000000e+02 9.300000000000000000e+01
6.640000000000000000e+02 9.300000000000000000e+01
6.650000000000000000e+02 9.300000000000000000e+01
6.660000000000000000e+02 9.300000000000000000e+01
6.670000000000000000e+02 9.300000000000000000e+01
6.680000000000000000e+02 9.300000000000000000e+01
6.690000000000000000e+02 9.300000000000000000e+01
7.210000000000000000e+02 9.300000000000000000e+01
7.910000000000000000e+02 9.300000000000000000e+01
7.920000000000000000e+02 9.300000000000000000e+01
