4.000000000000000000e+00 8.700000000000000000e+01
4.000000000000000000e+00 8.900000000000000000e+01
1.230000000000000000e+02 8.900000000000000000e+01
4.000000000000000000e+00 9.000000000000000000e+01
5.000000000000000000e+00 9.000000000000000000e+01
1.240000000000000000e+02 9.000000000000000000e+01
4.000000000000000000e+00 9.100000000000000000e+01
5.000000000000000000e+00 9.100000000000000000e+01
1.230000000000000000e+02 9.100000000000000000e+01
1.240000000000000000e+02 9.100000000000000000e+01
1.490000000000000000e+02 9.100000000000000000e+01
1.610000000000000000e+02 9.100000000000000000e+01
1.660000000000000000e+02 9.100000000000000000e+01
1.680000000000000000e+02 9.100000000000000000e+01
1.690000000000000000e+02 9.100000000000000000e+01
1.700000000000000000e+02 9.100000000000000000e+01
1.710000000000000000e+02 9.100000000000000000e+01
1.720000000000000000e+02 9.100000000000000000e+01
1.730000000000000000e+02 9.100000000000000000e+01
1.740000000000000000e+02 9.100000000000000000e+01
1.750000000000000000e+02 9.100000000000000000e+01
1.760000000000000000e+02 9.100000000000000000e+01
4.000000000000000000e+00 9.200000000000000000e+01
5.000000000000000000e+00 9.200000000000000000e+01
1.230000000000000000e+02 9.200000000000000000e+01
1.240000000000000000e+02 9.200000000000000000e+01
1.480000000000000000e+02 9.200000000000000000e+01
1.500000000000000000e+02 9.200000000000000000e+01
1.600000000000000000e+02 9.200000000000000000e+01
1.620000000000000000e+02 9.200000000000000000e+01
1.660000000000000000e+02 9.200000000000000000e+01
1.680000000000000000e+02 9.200000000000000000e+01
1.690000000000000000e+02 9.200000000000000000e+01
1.700000000000000000e+02 9.200000000000000000e+01
1.710000000000000000e+02 9.200000000000000000e+01
1.730000000000000000e+02 9.200000000000000000e+01
1.750000000000000000e+02 9.200000000000000000e+01
1.760000000000000000e+02 9.200000000000000000e+01
1.770000000000000000e+02 9.200000000000000000e+01
4.000000000000000000e+00 9.300000000000000000e+01
5.000000000000000000e+00 9.300000000000000000e+01
1.490000000000000000e+02 9.300000000000000000e+01
1.500000000000000000e+02 9.300000000000000000e+01
1.600000000000000000e+02 9.300000000000000000e+01
1.610000000000000000e+02 9.300000000000000000e+01
1.660000000000000000e+02 9.300000000000000000e+01
1.670000000000000000e+02 9.300000000000000000e+01
1.760000000000000000e+02 9.300000000000000000e+01
5.000000000000000000e+00 9.400000000000000000e+01
1.230000000000000000e+02 9.400000000000000000e+01
1.240000000000000000e+02 9.400000000000000000e+01
1.490000000000000000e+02 9.400000000000000000e+01
1.500000000000000000e+02 9.400000000000000000e+01
1.600000000000000000e+02 9.400000000000000000e+01
1.670000000000000000e+02 9.400000000000000000e+01
1.770000000000000000e+02 9.400000000000000000e+01
1.780000000000000000e+02 9.400000000000000000e+01
4.000000000000000000e+00 9.500000000000000000e+01
5.000000000000000000e+00 9.500000000000000000e+01
1.220000000000000000e+02 9.500000000000000000e+01
1.240000000000000000e+02 9.500000000000000000e+01
1.400000000000000000e+02 9.500000000000000000e+01
1.410000000000000000e+02 9.500000000000000000e+01
1.430000000000000000e+02 9.500000000000000000e+01
1.490000000000000000e+02 9.500000000000000000e+01
1.510000000000000000e+02 9.500000000000000000e+01
1.590000000000000000e+02 9.500000000000000000e+01
1.610000000000000000e+02 9.500000000000000000e+01
1.660000000000000000e+02 9.500000000000000000e+01
1.670000000000000000e+02 9.500000000000000000e+01
1.770000000000000000e+02 9.500000000000000000e+01
1.780000000000000000e+02 9.500000000000000000e+01
4.000000000000000000e+00 9.600000000000000000e+01
1.220000000000000000e+02 9.600000000000000000e+01
1.380000000000000000e+02 9.600000000000000000e+01
1.390000000000000000e+02 9.600000000000000000e+01
1.400000000000000000e+02 9.600000000000000000e+01
1.420000000000000000e+02 9.600000000000000000e+01
1.440000000000000000e+02 9.600000000000000000e+01
1.450000000000000000e+02 9.600000000000000000e+01
1.500000000000000000e+02 9.600000000000000000e+01
1.600000000000000000e+02 9.600000000000000000e+01
1.670000000000000000e+02 9.600000000000000000e+01
1.780000000000000000e+02 9.600000000000000000e+01
4.000000000000000000e+00 9.700000000000000000e+01
1.220000000000000000e+02 9.700000000000000000e+01
1.240000000000000000e+02 9.700000000000000000e+01
1.380000000000000000e+02 9.700000000000000000e+01
1.390000000000000000e+02 9.700000000000000000e+01
1.440000000000000000e+02 9.700000000000000000e+01
1.450000000000000000e+02 9.700000000000000000e+01
1.500000000000000000e+02 9.700000000000000000e+01
1.510000000000000000e+02 9.700000000000000000e+01
1.590000000000000000e+02 9.700000000000000000e+01
1.660000000000000000e+02 9.700000000000000000e+01
1.670000000000000000e+02 9.700000000000000000e+01
1.760000000000000000e+02 9.700000000000000000e+01
1.770000000000000000e+02 9.700000000000000000e+01
1.780000000000000000e+02 9.700000000000000000e+01
4.000000000000000000e+00 9.800000000000000000e+01
5.000000000000000000e+00 9.800000000000000000e+01
1.240000000000000000e+02 9.800000000000000000e+01
1.380000000000000000e+02 9.800000000000000000e+01
1.450000000000000000e+02 9.800000000000000000e+01
1.460000000000000000e+02 9.800000000000000000e+01
1.500000000000000000e+02 9.800000000000000000e+01
1.510000000000000000e+02 9.800000000000000000e+01
1.580000000000000000e+02 9.800000000000000000e+01
1.590000000000000000e+02 9.800000000000000000e+01
1.600000000000000000e+02 9.800000000000000000e+01
1.660000000000000000e+02 9.800000000000000000e+01
1.670000000000000000e+02 9.800000000000000000e+01
1.690000000000000000e+02 9.800000000000000000e+01
1.700000000000000000e+02 9.800000000000000000e+01
1.710000000000000000e+02 9.800000000000000000e+01
1.720000000000000000e+02 9.800000000000000000e+01
1.730000000000000000e+02 9.800000000000000000e+01
1.760000000000000000e+02 9.800000000000000000e+01
1.770000000000000000e+02 9.800000000000000000e+01
4.000000000000000000e+00 9.900000000000000000e+01
5.000000000000000000e+00 9.900000000000000000e+01
4.000000000000000000e+01 9.900000000000000000e+01
1.220000000000000000e+02 9.900000000000000000e+01
1.240000000000000000e+02 9.900000000000000000e+01
1.430000000000000000e+02 9.900000000000000000e+01
1.440000000000000000e+02 9.900000000000000000e+01
1.450000000000000000e+02 9.900000000000000000e+01
1.460000000000000000e+02 9.900000000000000000e+01
1.510000000000000000e+02 9.900000000000000000e+01
1.580000000000000000e+02 9.900000000000000000e+01
1.660000000000000000e+02 9.900000000000000000e+01
1.670000000000000000e+02 9.900000000000000000e+01
1.690000000000000000e+02 9.900000000000000000e+01
1.700000000000000000e+02 9.900000000000000000e+01
1.710000000000000000e+02 9.900000000000000000e+01
1.720000000000000000e+02 9.900000000000000000e+01
1.740000000000000000e+02 9.900000000000000000e+01
4.000000000000000000e+00 1.000000000000000000e+02
4.000000000000000000e+01 1.000000000000000000e+02
1.220000000000000000e+02 1.000000000000000000e+02
1.390000000000000000e+02 1.000000000000000000e+02
1.400000000000000000e+02 1.000000000000000000e+02
1.410000000000000000e+02 1.000000000000000000e+02
1.420000000000000000e+02 1.000000000000000000e+02
1.430000000000000000e+02 1.000000000000000000e+02
1.450000000000000000e+02 1.000000000000000000e+02
1.520000000000000000e+02 1.000000000000000000e+02
1.580000000000000000e+02 1.000000000000000000e+02
1.590000000000000000e+02 1.000000000000000000e+02
1.660000000000000000e+02 1.000000000000000000e+02
1.670000000000000000e+02 1.000000000000000000e+02
1.730000000000000000e+02 1.000000000000000000e+02
1.740000000000000000e+02 1.000000000000000000e+02
4.000000000000000000e+00 1.010000000000000000e+02
5.000000000000000000e+00 1.010000000000000000e+02
3.900000000000000000e+01 1.010000000000000000e+02
4.200000000000000000e+01 1.010000000000000000e+02
1.220000000000000000e+02 1.010000000000000000e+02
1.380000000000000000e+02 1.010000000000000000e+02
1.390000000000000000e+02 1.010000000000000000e+02
1.400000000000000000e+02 1.010000000000000000e+02
1.410000000000000000e+02 1.010000000000000000e+02
1.450000000000000000e+02 1.010000000000000000e+02
1.460000000000000000e+02 1.010000000000000000e+02
1.520000000000000000e+02 1.010000000000000000e+02
1.530000000000000000e+02 1.010000000000000000e+02
1.570000000000000000e+02 1.010000000000000000e+02
1.670000000000000000e+02 1.010000000000000000e+02
1.740000000000000000e+02 1.010000000000000000e+02
1.750000000000000000e+02 1.010000000000000000e+02
3.000000000000000000e+00 1.020000000000000000e+02
6.000000000000000000e+00 1.020000000000000000e+02
3.900000000000000000e+01 1.020000000000000000e+02
4.000000000000000000e+01 1.020000000000000000e+02
4.100000000000000000e+01 1.020000000000000000e+02
4.200000000000000000e+01 1.020000000000000000e+02
4.300000000000000000e+01 1.020000000000000000e+02
1.220000000000000000e+02 1.020000000000000000e+02
1.250000000000000000e+02 1.020000000000000000e+02
1.370000000000000000e+02 1.020000000000000000e+02
1.390000000000000000e+02 1.020000000000000000e+02
1.450000000000000000e+02 1.020000000000000000e+02
1.520000000000000000e+02 1.020000000000000000e+02
1.570000000000000000e+02 1.020000000000000000e+02
1.660000000000000000e+02 1.020000000000000000e+02
1.670000000000000000e+02 1.020000000000000000e+02
1.750000000000000000e+02 1.020000000000000000e+02
1.760000000000000000e+02 1.020000000000000000e+02
3.000000000000000000e+00 1.030000000000000000e+02
6.000000000000000000e+00 1.030000000000000000e+02
3.600000000000000000e+01 1.030000000000000000e+02
3.900000000000000000e+01 1.030000000000000000e+02
4.000000000000000000e+01 1.030000000000000000e+02
4.100000000000000000e+01 1.030000000000000000e+02
4.300000000000000000e+01 1.030000000000000000e+02
4.400000000000000000e+01 1.030000000000000000e+02
4.600000000000000000e+01 1.030000000000000000e+02
1.220000000000000000e+02 1.030000000000000000e+02
1.370000000000000000e+02 1.030000000000000000e+02
1.380000000000000000e+02 1.030000000000000000e+02
1.450000000000000000e+02 1.030000000000000000e+02
1.460000000000000000e+02 1.030000000000000000e+02
1.520000000000000000e+02 1.030000000000000000e+02
1.530000000000000000e+02 1.030000000000000000e+02
1.560000000000000000e+02 1.030000000000000000e+02
1.570000000000000000e+02 1.030000000000000000e+02
1.580000000000000000e+02 1.030000000000000000e+02
1.660000000000000000e+02 1.030000000000000000e+02
1.670000000000000000e+02 1.030000000000000000e+02
1.740000000000000000e+02 1.030000000000000000e+02
1.750000000000000000e+02 1.030000000000000000e+02
1.760000000000000000e+02 1.030000000000000000e+02
6.000000000000000000e+00 1.040000000000000000e+02
3.600000000000000000e+01 1.040000000000000000e+02
3.800000000000000000e+01 1.040000000000000000e+02
3.900000000000000000e+01 1.040000000000000000e+02
4.000000000000000000e+01 1.040000000000000000e+02
4.300000000000000000e+01 1.040000000000000000e+02
4.400000000000000000e+01 1.040000000000000000e+02
1.220000000000000000e+02 1.040000000000000000e+02
1.250000000000000000e+02 1.040000000000000000e+02
1.370000000000000000e+02 1.040000000000000000e+02
1.380000000000000000e+02 1.040000000000000000e+02
1.440000000000000000e+02 1.040000000000000000e+02
1.450000000000000000e+02 1.040000000000000000e+02
1.530000000000000000e+02 1.040000000000000000e+02
1.540000000000000000e+02 1.040000000000000000e+02
1.560000000000000000e+02 1.040000000000000000e+02
1.570000000000000000e+02 1.040000000000000000e+02
1.770000000000000000e+02 1.040000000000000000e+02
3.000000000000000000e+00 1.050000000000000000e+02
6.000000000000000000e+00 1.050000000000000000e+02
3.600000000000000000e+01 1.050000000000000000e+02
3.800000000000000000e+01 1.050000000000000000e+02
3.900000000000000000e+01 1.050000000000000000e+02
4.100000000000000000e+01 1.050000000000000000e+02
4.300000000000000000e+01 1.050000000000000000e+02
4.400000000000000000e+01 1.050000000000000000e+02
4.600000000000000000e+01 1.050000000000000000e+02
1.220000000000000000e+02 1.050000000000000000e+02
1.250000000000000000e+02 1.050000000000000000e+02
1.380000000000000000e+02 1.050000000000000000e+02
1.390000000000000000e+02 1.050000000000000000e+02
1.440000000000000000e+02 1.050000000000000000e+02
1.450000000000000000e+02 1.050000000000000000e+02
1.460000000000000000e+02 1.050000000000000000e+02
1.530000000000000000e+02 1.050000000000000000e+02
1.540000000000000000e+02 1.050000000000000000e+02
1.560000000000000000e+02 1.050000000000000000e+02
1.660000000000000000e+02 1.050000000000000000e+02
1.670000000000000000e+02 1.050000000000000000e+02
1.760000000000000000e+02 1.050000000000000000e+02
3.000000000000000000e+00 1.060000000000000000e+02
6.000000000000000000e+00 1.060000000000000000e+02
3.700000000000000000e+01 1.060000000000000000e+02
3.800000000000000000e+01 1.060000000000000000e+02
3.900000000000000000e+01 1.060000000000000000e+02
4.100000000000000000e+01 1.060000000000000000e+02
4.300000000000000000e+01 1.060000000000000000e+02
4.600000000000000000e+01 1.060000000000000000e+02
1.220000000000000000e+02 1.060000000000000000e+02
1.250000000000000000e+02 1.060000000000000000e+02
1.390000000000000000e+02 1.060000000000000000e+02
1.400000000000000000e+02 1.060000000000000000e+02
1.410000000000000000e+02 1.060000000000000000e+02
1.460000000000000000e+02 1.060000000000000000e+02
1.550000000000000000e+02 1.060000000000000000e+02
1.560000000000000000e+02 1.060000000000000000e+02
1.570000000000000000e+02 1.060000000000000000e+02
1.660000000000000000e+02 1.060000000000000000e+02
1.670000000000000000e+02 1.060000000000000000e+02
1.760000000000000000e+02 1.060000000000000000e+02
1.770000000000000000e+02 1.060000000000000000e+02
1.780000000000000000e+02 1.060000000000000000e+02
3.700000000000000000e+01 1.070000000000000000e+02
3.800000000000000000e+01 1.070000000000000000e+02
4.100000000000000000e+01 1.070000000000000000e+02
4.500000000000000000e+01 1.070000000000000000e+02
4.700000000000000000e+01 1.070000000000000000e+02
1.250000000000000000e+02 1.070000000000000000e+02
1.390000000000000000e+02 1.070000000000000000e+02
1.410000000000000000e+02 1.070000000000000000e+02
1.420000000000000000e+02 1.070000000000000000e+02
1.470000000000000000e+02 1.070000000000000000e+02
1.550000000000000000e+02 1.070000000000000000e+02
1.560000000000000000e+02 1.070000000000000000e+02
1.660000000000000000e+02 1.070000000000000000e+02
1.770000000000000000e+02 1.070000000000000000e+02
1.790000000000000000e+02 1.070000000000000000e+02
3.000000000000000000e+00 1.080000000000000000e+02
6.000000000000000000e+00 1.080000000000000000e+02
3.600000000000000000e+01 1.080000000000000000e+02
3.700000000000000000e+01 1.080000000000000000e+02
3.900000000000000000e+01 1.080000000000000000e+02
4.100000000000000000e+01 1.080000000000000000e+02
4.300000000000000000e+01 1.080000000000000000e+02
4.500000000000000000e+01 1.080000000000000000e+02
4.600000000000000000e+01 1.080000000000000000e+02
4.700000000000000000e+01 1.080000000000000000e+02
1.220000000000000000e+02 1.080000000000000000e+02
1.250000000000000000e+02 1.080000000000000000e+02
1.300000000000000000e+02 1.080000000000000000e+02
