1.680000000000000000e+02 0.000000000000000000e+00
1.690000000000000000e+02 0.000000000000000000e+00
1.700000000000000000e+02 0.000000000000000000e+00
1.710000000000000000e+02 0.000000000000000000e+00
1.720000000000000000e+02 0.000000000000000000e+00
1.730000000000000000e+02 0.000000000000000000e+00
3.190000000000000000e+02 0.000000000000000000e+00
3.200000000000000000e+02 0.000000000000000000e+00
3.210000000000000000e+02 0.000000000000000000e+00
3.220000000000000000e+02 0.000000000000000000e+00
3.230000000000000000e+02 0.000000000000000000e+00
4.590000000000000000e+02 0.000000000000000000e+00
4.600000000000000000e+02 0.000000000000000000e+00
4.610000000000000000e+02 0.000000000000000000e+00
4.620000000000000000e+02 0.000000000000000000e+00
4.630000000000000000e+02 0.000000000000000000e+00
5.880000000000000000e+02 0.000000000000000000e+00
5.890000000000000000e+02 0.000000000000000000e+00
5.900000000000000000e+02 0.000000000000000000e+00
5.910000000000000000e+02 0.000000000000000000e+00
5.920000000000000000e+02 0.000000000000000000e+00
7.040000000000000000e+02 0.000000000000000000e+00
7.050000000000000000e+02 0.000000000000000000e+00
7.060000000000000000e+02 0.000000000000000000e+00
7.070000000000000000e+02 0.000000000000000000e+00
7.080000000000000000e+02 0.000000000000000000e+00
7.090000000000000000e+02 0.000000000000000000e+00
8.220000000000000000e+02 0.000000000000000000e+00
8.230000000000000000e+02 0.000000000000000000e+00
8.240000000000000000e+02 0.000000000000000000e+00
8.250000000000000000e+02 0.000000000000000000e+00
8.260000000000000000e+02 0.000000000000000000e+00
9.500000000000000000e+02 0.000000000000000000e+00
9.510000000000000000e+02 0.000000000000000000e+00
9.520000000000000000e+02 0.000000000000000000e+00
9.530000000000000000e+02 0.000000000000000000e+00
9.540000000000000000e+02 0.000000000000000000e+00
9.550000000000000000e+02 0.000000000000000000e+00
1.680000000000000000e+02 1.000000000000000000e+00
1.690000000000000000e+02 1.000000000000000000e+00
1.700000000000000000e+02 1.000000000000000000e+00
1.710000000000000000e+02 1.000000000000000000e+00
1.720000000000000000e+02 1.000000000000000000e+00
1.730000000000000000e+02 1.000000000000000000e+00
3.190000000000000000e+02 1.000000000000000000e+00
3.200000000000000000e+02 1.000000000000000000e+00
3.210000000000000000e+02 1.000000000000000000e+00
3.220000000000000000e+02 1.000000000000000000e+00
3.230000000000000000e+02 1.000000000000000000e+00
4.590000000000000000e+02 1.000000000000000000e+00
4.600000000000000000e+02 1.000000000000000000e+00
4.610000000000000000e+02 1.000000000000000000e+00
4.620000000000000000e+02 1.000000000000000000e+00
4.630000000000000000e+02 1.000000000000000000e+00
5.880000000000000000e+02 1.000000000000000000e+00
5.890000000000000000e+02 1.000000000000000000e+00
5.900000000000000000e+02 1.000000000000000000e+00
5.910000000000000000e+02 1.000000000000000000e+00
5.920000000000000000e+02 1.000000000000000000e+00
7.040000000000000000e+02 1.000000000000000000e+00
7.050000000000000000e+02 1.000000000000000000e+00
7.060000000000000000e+02 1.000000000000000000e+00
7.070000000000000000e+02 1.000000000000000000e+00
7.080000000000000000e+02 1.000000000000000000e+00
7.090000000000000000e+02 1.000000000000000000e+00
8.220000000000000000e+02 1.000000000000000000e+00
8.230000000000000000e+02 1.000000000000000000e+00
8.240000000000000000e+02 1.000000000000000000e+00
8.250000000000000000e+02 1.000000000000000000e+00
8.260000000000000000e+02 1.000000000000000000e+00
9.500000000000000000e+02 1.000000000000000000e+00
9.510000000000000000e+02 1.000000000000000000e+00
9.520000000000000000e+02 1.000000000000000000e+00
9.530000000000000000e+02 1.000000000000000000e+00
9.540000000000000000e+02 1.000000000000000000e+00
9.550000000000000000e+02 1.000000000000000000e+00
1.680000000000000000e+02 2.000000000000000000e+00
1.690000000000000000e+02 2.000000000000000000e+00
1.700000000000000000e+02 2.000000000000000000e+00
1.710000000000000000e+02 2.000000000000000000e+00
1.720000000000000000e+02 2.000000000000000000e+00
1.730000000000000000e+02 2.000000000000000000e+00
3.190000000000000000e+02 2.000000000000000000e+00
3.200000000000000000e+02 2.000000000000000000e+00
3.210000000000000000e+02 2.000000000000000000e+00
3.220000000000000000e+02 2.000000000000000000e+00
3.230000000000000000e+02 2.000000000000000000e+00
4.590000000000000000e+02 2.000000000000000000e+00
4.600000000000000000e+02 2.000000000000000000e+00
4.610000000000000000e+02 2.000000000000000000e+00
4.620000000000000000e+02 2.000000000000000000e+00
4.630000000000000000e+02 2.000000000000000000e+00
5.880000000000000000e+02 2.000000000000000000e+00
5.890000000000000000e+02 2.000000000000000000e+00
5.900000000000000000e+02 2.000000000000000000e+00
5.910000000000000000e+02 2.000000000000000000e+00
5.920000000000000000e+02 2.000000000000000000e+00
7.040000000000000000e+02 2.000000000000000000e+00
7.050000000000000000e+02 2.000000000000000000e+00
7.060000000000000000e+02 2.000000000000000000e+00
7.070000000000000000e+02 2.000000000000000000e+00
7.080000000000000000e+02 2.000000000000000000e+00
7.090000000000000000e+02 2.000000000000000000e+00
8.220000000000000000e+02 2.000000000000000000e+00
8.230000000000000000e+02 2.000000000000000000e+00
8.240000000000000000e+02 2.000000000000000000e+00
8.250000000000000000e+02 2.000000000000000000e+00
8.260000000000000000e+02 2.000000000000000000e+00
9.500000000000000000e+02 2.000000000000000000e+00
9.510000000000000000e+02 2.000000000000000000e+00
9.520000000000000000e+02 2.000000000000000000e+00
9.530000000000000000e+02 2.000000000000000000e+00
9.540000000000000000e+02 2.000000000000000000e+00
9.550000000000000000e+02 2.000000000000000000e+00
1.680000000000000000e+02 3.000000000000000000e+00
1.690000000000000000e+02 3.000000000000000000e+00
1.700000000000000000e+02 3.000000000000000000e+00
1.710000000000000000e+02 3.000000000000000000e+00
1.720000000000000000e+02 3.000000000000000000e+00
1.730000000000000000e+02 3.000000000000000000e+00
3.190000000000000000e+02 3.000000000000000000e+00
3.200000000000000000e+02 3.000000000000000000e+00
3.210000000000000000e+02 3.000000000000000000e+00
3.220000000000000000e+02 3.000000000000000000e+00
3.230000000000000000e+02 3.000000000000000000e+00
4.590000000000000000e+02 3.000000000000000000e+00
4.600000000000000000e+02 3.000000000000000000e+00
4.610000000000000000e+02 3.000000000000000000e+00
4.620000000000000000e+02 3.000000000000000000e+00
4.630000000000000000e+02 3.000000000000000000e+00
5.880000000000000000e+02 3.000000000000000000e+00
5.890000000000000000e+02 3.000000000000000000e+00
5.900000000000000000e+02 3.000000000000000000e+00
5.910000000000000000e+02 3.000000000000000000e+00
5.920000000000000000e+02 3.000000000000000000e+00
7.040000000000000000e+02 3.000000000000000000e+00
7.050000000000000000e+02 3.000000000000000000e+00
7.060000000000000000e+02 3.000000000000000000e+00
7.070000000000000000e+02 3.000000000000000000e+00
7.080000000000000000e+02 3.000000000000000000e+00
7.090000000000000000e+02 3.000000000000000000e+00
8.220000000000000000e+02 3.000000000000000000e+00
8.230000000000000000e+02 3.000000000000000000e+00
8.240000000000000000e+02 3.000000000000000000e+00
8.250000000000000000e+02 3.000000000000000000e+00
8.260000000000000000e+02 3.000000000000000000e+00
9.500000000000000000e+02 3.000000000000000000e+00
9.510000000000000000e+02 3.000000000000000000e+00
9.520000000000000000e+02 3.000000000000000000e+00
9.530000000000000000e+02 3.000000000000000000e+00
9.540000000000000000e+02 3.000000000000000000e+00
9.550000000000000000e+02 3.000000000000000000e+00
1.680000000000000000e+02 4.000000000000000000e+00
1.690000000000000000e+02 4.000000000000000000e+00
1.700000000000000000e+02 4.000000000000000000e+00
1.710000000000000000e+02 4.000000000000000000e+00
1.720000000000000000e+02 4.000000000000000000e+00
1.730000000000000000e+02 4.000000000000000000e+00
3.190000000000000000e+02 4.000000000000000000e+00
3.200000000000000000e+02 4.000000000000000000e+00
3.210000000000000000e+02 4.000000000000000000e+00
3.220000000000000000e+02 4.000000000000000000e+00
3.230000000000000000e+02 4.000000000000000000e+00
4.590000000000000000e+02 4.000000000000000000e+00
4.600000000000000000e+02 4.000000000000000000e+00
4.610000000000000000e+02 4.000000000000000000e+00
4.620000000000000000e+02 4.000000000000000000e+00
4.630000000000000000e+02 4.000000000000000000e+00
5.880000000000000000e+02 4.000000000000000000e+00
5.890000000000000000e+02 4.000000000000000000e+00
5.900000000000000000e+02 4.000000000000000000e+00
5.910000000000000000e+02 4.000000000000000000e+00
5.920000000000000000e+02 4.000000000000000000e+00
7.040000000000000000e+02 4.000000000000000000e+00
7.050000000000000000e+02 4.000000000000000000e+00
7.060000000000000000e+02 4.000000000000000000e+00
7.070000000000000000e+02 4.000000000000000000e+00
7.080000000000000000e+02 4.000000000000000000e+00
7.090000000000000000e+02 4.000000000000000000e+00
8.220000000000000000e+02 4.000000000000000000e+00
8.230000000000000000e+02 4.000000000000000000e+00
8.240000000000000000e+02 4.000000000000000000e+00
8.250000000000000000e+02 4.000000000000000000e+00
8.260000000000000000e+02 4.000000000000000000e+00
9.500000000000000000e+02 4.000000000000000000e+00
9.510000000000000000e+02 4.000000000000000000e+00
9.520000000000000000e+02 4.000000000000000000e+00
9.530000000000000000e+02 4.000000000000000000e+00
9.540000000000000000e+02 4.000000000000000000e+00
9.550000000000000000e+02 4.000000000000000000e+00
1.680000000000000000e+02 5.000000000000000000e+00
1.690000000000000000e+02 5.000000000000000000e+00
1.700000000000000000e+02 5.000000000000000000e+00
1.710000000000000000e+02 5.000000000000000000e+00
1.720000000000000000e+02 5.000000000000000000e+00
1.730000000000000000e+02 5.000000000000000000e+00
3.190000000000000000e+02 5.000000000000000000e+00
3.200000000000000000e+02 5.000000000000000000e+00
3.210000000000000000e+02 5.000000000000000000e+00
3.220000000000000000e+02 5.000000000000000000e+00
3.230000000000000000e+02 5.000000000000000000e+00
4.590000000000000000e+02 5.000000000000000000e+00
4.600000000000000000e+02 5.000000000000000000e+00
4.610000000000000000e+02 5.000000000000000000e+00
4.620000000000000000e+02 5.000000000000000000e+00
4.630000000000000000e+02 5.000000000000000000e+00
5.880000000000000000e+02 5.000000000000000000e+00
5.890000000000000000e+02 5.000000000000000000e+00
5.900000000000000000e+02 5.000000000000000000e+00
5.910000000000000000e+02 5.000000000000000000e+00
5.920000000000000000e+02 5.000000000000000000e+00
7.040000000000000000e+02 5.000000000000000000e+00
7.050000000000000000e+02 5.000000000000000000e+00
7.060000000000000000e+02 5.000000000000000000e+00
7.070000000000000000e+02 5.000000000000000000e+00
7.080000000000000000e+02 5.000000000000000000e+00
7.090000000000000000e+02 5.000000000000000000e+00
8.220000000000000000e+02 5.000000000000000000e+00
8.230000000000000000e+02 5.000000000000000000e+00
8.240000000000000000e+02 5.000000000000000000e+00
8.250000000000000000e+02 5.000000000000000000e+00
8.260000000000000000e+02 5.000000000000000000e+00
9.500000000000000000e+02 5.000000000000000000e+00
9.510000000000000000e+02 5.000000000000000000e+00
9.520000000000000000e+02 5.000000000000000000e+00
9.530000000000000000e+02 5.000000000000000000e+00
9.540000000000000000e+02 5.000000000000000000e+00
9.550000000000000000e+02 5.000000000000000000e+00
1.680000000000000000e+02 6.000000000000000000e+00
1.690000000000000000e+02 6.000000000000000000e+00
1.700000000000000000e+02 6.000000000000000000e+00
1.710000000000000000e+02 6.000000000000000000e+00
1.720000000000000000e+02 6.000000000000000000e+00
1.730000000000000000e+02 6.000000000000000000e+00
3.190000000000000000e+02 6.000000000000000000e+00
3.200000000000000000e+02 6.000000000000000000e+00
3.210000000000000000e+02 6.000000000000000000e+00
3.220000000000000000e+02 6.000000000000000000e+00
3.230000000000000000e+02 6.000000000000000000e+00
4.590000000000000000e+02 6.000000000000000000e+00
4.600000000000000000e+02 6.000000000000000000e+00
4.610000000000000000e+02 6.000000000000000000e+00
4.620000000000000000e+02 6.000000000000000000e+00
4.630000000000000000e+02 6.000000000000000000e+00
5.880000000000000000e+02 6.000000000000000000e+00
5.890000000000000000e+02 6.000000000000000000e+00
5.900000000000000000e+02 6.000000000000000000e+00
5.910000000000000000e+02 6.000000000000000000e+00
5.920000000000000000e+02 6.000000000000000000e+00
7.040000000000000000e+02 6.000000000000000000e+00
7.050000000000000000e+02 6.000000000000000000e+00
7.060000000000000000e+02 6.000000000000000000e+00
7.070000000000000000e+02 6.000000000000000000e+00
7.080000000000000000e+02 6.000000000000000000e+00
7.090000000000000000e+02 6.000000000000000000e+00
8.220000000000000000e+02 6.000000000000000000e+00
8.230000000000000000e+02 6.000000000000000000e+00
8.240000000000000000e+02 6.000000000000000000e+00
8.250000000000000000e+02 6.000000000000000000e+00
8.260000000000000000e+02 6.000000000000000000e+00
9.500000000000000000e+02 6.000000000000000000e+00
9.510000000000000000e+02 6.000000000000000000e+00
9.520000000000000000e+02 6.000000000000000000e+00
9.530000000000000000e+02 6.000000000000000000e+00
9.540000000000000000e+02 6.000000000000000000e+00
9.550000000000000000e+02 6.000000000000000000e+00
1.680000000000000000e+02 7.000000000000000000e+00
1.690000000000000000e+02 7.000000000000000000e+00
1.700000000000000000e+02 7.000000000000000000e+00
1.710000000000000000e+02 7.000000000000000000e+00
1.720000000000000000e+02 7.000000000000000000e+00
1.730000000000000000e+02 7.000000000000000000e+00
3.190000000000000000e+02 7.000000000000000000e+00
3.200000000000000000e+02 7.000000000000000000e+00
3.210000000000000000e+02 7.000000000000000000e+00
3.220000000000000000e+02 7.000000000000000000e+00
3.230000000000000000e+02 7.000000000000000000e+00
4.590000000000000000e+02 7.000000000000000000e+00
4.600000000000000000e+02 7.000000000000000000e+00
4.610000000000000000e+02 7.000000000000000000e+00
4.620000000000000000e+02 7.000000000000000000e+00
4.630000000000000000e+02 7.000000000000000000e+00
5.880000000000000000e+02 7.000000000000000000e+00
5.890000000000000000e+02 7.000000000000000000e+00
5.900000000000000000e+02 7.000000000000000000e+00
5.910000000000000000e+02 7.000000000000000000e+00
5.920000000000000000e+02 7.000000000000000000e+00
7.040000000000000000e+02 7.000000000000000000e+00
7.050000000000000000e+02 7.000000000000000000e+00
7.060000000000000000e+02 7.000000000000000000e+00
7.070000000000000000e+02 7.000000000000000000e+00
7.080000000000000000e+02 7.000000000000000000e+00
7.090000000000000000e+02 7.000000000000000000e+00
8.220000000000000000e+02 7.000000000000000000e+00
8.230000000000000000e+02 7.000000000000000000e+00
8.240000000000000000e+02 7.000000000000000000e+00
8.250000000000000000e+02 7.000000000000000000e+00
8.260000000000000000e+02 7.000000000000000000e+00
9.500000000000000000e+02 7.000000000000000000e+00
9.510000000000000000e+02 7.000000000000000000e+00
9.520000000000000000e+02 7.000000000000000000e+00
9.530000000000000000e+02 7.000000000000000000e+00
9.540000000000000000e+02 7.000000000000000000e+00
9.550000000000000000e+02 7.000000000000000000e+00
1.680000000000000000e+02 8.000000000000000000e+00
1.690000000000000000e+02 8.000000000000000000e+00
1.700000000000000000e+02 8.000000000000000000e+00
1.710000000000000000e+02 8.000000000000000000e+00
1.720000000000000000e+02 8.000000000000000000e+00
1.730000000000000000e+02 8.000000000000000000e+00
3.190000000000000000e+02 8.000000000000000000e+00
3.200000000000000000e+02 8.000000000000000000e+00
3.210000000000000000e+02 8.000000000000000000e+00
3.220000000000000000e+02 8.000000000000000000e+00
3.230000000000000000e+02 8.000000000000000000e+00
4.590000000000000000e+02 8.000000000000000000e+00
4.600000000000000000e+02 8.000000000000000000e+00
4.610000000000000000e+02 8.000000000000000000e+00
4.620000000000000000e+02 8.000000000000000000e+00
4.630000000000000000e+02 8.000000000000000000e+00
5.880000000000000000e+02 8.000000000000000000e+00
5.890000000000000000e+02 8.000000000000000000e+00
5.900000000000000000e+02 8.000000000000000000e+00
5.910000000000000000e+02 8.000000000000000000e+00
5.920000000000000000e+02 8.000000000000000000e+00
7.040000000000000000e+02 8.000000000000000000e+00
7.050000000000000000e+02 8.000000000000000000e+00
7.060000000000000000e+02 8.000000000000000000e+00
7.070000000000000000e+02 8.000000000000000000e+00
7.080000000000000000e+02 8.000000000000000000e+00
7.090000000000000000e+02 8.000000000000000000e+00
8.220000000000000000e+02 8.000000000000000000e+00
8.230000000000000000e+02 8.000000000000000000e+00
8.240000000000000000e+02 8.000000000000000000e+00
8.250000000000000000e+02 8.000000000000000000e+00
8.260000000000000000e+02 8.000000000000000000e+00
9.500000000000000000e+02 8.000000000000000000e+00
9.510000000000000000e+02 8.000000000000000000e+00
9.520000000000000000e+02 8.000000000000000000e+00
9.530000000000000000e+02 8.000000000000000000e+00
9.540000000000000000e+02 8.000000000000000000e+00
9.550000000000000000e+02 8.000000000000000000e+00
1.680000000000000000e+02 9.000000000000000000e+00
1.690000000000000000e+02 9.000000000000000000e+00
1.700000000000000000e+02 9.000000000000000000e+00
1.710000000000000000e+02 9.000000000000000000e+00
1.720000000000000000e+02 9.000000000000000000e+00
1.730000000000000000e+02 9.000000000000000000e+00
3.190000000000000000e+02 9.000000000000000000e+00
3.200000000000000000e+02 9.000000000000000000e+00
3.210000000000000000e+02 9.000000000000000000e+00
3.220000000000000000e+02 9.000000000000000000e+00
3.230000000000000000e+02 9.000000000000000000e+00
4.590000000000000000e+02 9.000000000000000000e+00
4.600000000000000000e+02 9.000000000000000000e+00
4.610000000000000000e+02 9.000000000000000000e+00
4.620000000000000000e+02 9.000000000000000000e+00
4.630000000000000000e+02 9.000000000000000000e+00
5.880000000000000000e+02 9.000000000000000000e+00
5.890000000000000000e+02 9.000000000000000000e+00
5.900000000000000000e+02 9.000000000000000000e+00
5.910000000000000000e+02 9.000000000000000000e+00
5.920000000000000000e+02 9.000000000000000000e+00
7.040000000000000000e+02 9.000000000000000000e+00
7.050000000000000000e+02 9.000000000000000000e+00
7.060000000000000000e+02 9.000000000000000000e+00
7.070000000000000000e+02 9.000000000000000000e+00
7.080000000000000000e+02 9.000000000000000000e+00
7.090000000000000000e+02 9.000000000000000000e+00
8.220000000000000000e+02 9.000000000000000000e+00
8.230000000000000000e+02 9.000000000000000000e+00
8.240000000000000000e+02 9.000000000000000000e+00
8.250000000000000000e+02 9.000000000000000000e+00
8.260000000000000000e+02 9.000000000000000000e+00
9.500000000000000000e+02 9.000000000000000000e+00
9.510000000000000000e+02 9.000000000000000000e+00
9.520000000000000000e+02 9.000000000000000000e+00
9.530000000000000000e+02 9.000000000000000000e+00
9.540000000000000000e+02 9.000000000000000000e+00
9.550000000000000000e+02 9.000000000000000000e+00
1.680000000000000000e+02 1.000000000000000000e+01
1.690000000000000000e+02 1.000000000000000000e+01
1.700000000000000000e+02 1.000000000000000000e+01
1.710000000000000000e+02 1.000000000000000000e+01
1.720000000000000000e+02 1.000000000000000000e+01
1.730000000000000000e+02 1.000000000000000000e+01
3.190000000000000000e+02 1.000000000000000000e+01
3.200000000000000000e+02 1.000000000000000000e+01
3.210000000000000000e+02 1.000000000000000000e+01
3.220000000000000000e+02 1.000000000000000000e+01
3.230000000000000000e+02 1.000000000000000000e+01
4.590000000000000000e+02 1.000000000000000000e+01
4.600000000000000000e+02 1.000000000000000000e+01
4.610000000000000000e+02 1.000000000000000000e+01
4.620000000000000000e+02 1.000000000000000000e+01
4.630000000000000000e+02 1.000000000000000000e+01
5.880000000000000000e+02 1.000000000000000000e+01
5.890000000000000000e+02 1.000000000000000000e+01
5.900000000000000000e+02 1.000000000000000000e+01
5.910000000000000000e+02 1.000000000000000000e+01
5.920000000000000000e+02 1.000000000000000000e+01
7.040000000000000000e+02 1.000000000000000000e+01
7.050000000000000000e+02 1.000000000000000000e+01
7.060000000000000000e+02 1.000000000000000000e+01
7.070000000000000000e+02 1.000000000000000000e+01
7.080000000000000000e+02 1.000000000000000000e+01
7.090000000000000000e+02 1.000000000000000000e+01
8.220000000000000000e+02 1.000000000000000000e+01
8.230000000000000000e+02 1.000000000000000000e+01
8.240000000000000000e+02 1.000000000000000000e+01
8.250000000000000000e+02 1.000000000000000000e+01
8.260000000000000000e+02 1.000000000000000000e+01
9.500000000000000000e+02 1.000000000000000000e+01
9.510000000000000000e+02 1.000000000000000000e+01
9.520000000000000000e+02 1.000000000000000000e+01
9.530000000000000000e+02 1.000000000000000000e+01
9.540000000000000000e+02 1.000000000000000000e+01
9.550000000000000000e+02 1.000000000000000000e+01
1.680000000000000000e+02 1.100000000000000000e+01
1.690000000000000000e+02 1.100000000000000000e+01
1.700000000000000000e+02 1.100000000000000000e+01
1.710000000000000000e+02 1.100000000000000000e+01
1.720000000000000000e+02 1.100000000000000000e+01
1.730000000000000000e+02 1.100000000000000000e+01
3.190000000000000000e+02 1.100000000000000000e+01
3.200000000000000000e+02 1.100000000000000000e+01
3.210000000000000000e+02 1.100000000000000000e+01
3.220000000000000000e+02 1.100000000000000000e+01
3.230000000000000000e+02 1.100000000000000000e+01
4.590000000000000000e+02 1.100000000000000000e+01
4.600000000000000000e+02 1.100000000000000000e+01
4.610000000000000000e+02 1.100000000000000000e+01
4.620000000000000000e+02 1.100000000000000000e+01
4.630000000000000000e+02 1.100000000000000000e+01
5.880000000000000000e+02 1.100000000000000000e+01
5.890000000000000000e+02 1.100000000000000000e+01
5.900000000000000000e+02 1.100000000000000000e+01
5.910000000000000000e+02 1.100000000000000000e+01
5.920000000000000000e+02 1.100000000000000000e+01
7.040000000000000000e+02 1.100000000000000000e+01
7.050000000000000000e+02 1.100000000000000000e+01
7.060000000000000000e+02 1.100000000000000000e+01
7.070000000000000000e+02 1.100000000000000000e+01
7.080000000000000000e+02 1.100000000000000000e+01
7.090000000000000000e+02 1.100000000000000000e+01
8.220000000000000000e+02 1.100000000000000000e+01
8.230000000000000000e+02 1.100000000000000000e+01
8.240000000000000000e+02 1.100000000000000000e+01
8.250000000000000000e+02 1.100000000000000000e+01
8.260000000000000000e+02 1.100000000000000000e+01
9.500000000000000000e+02 1.100000000000000000e+01
9.510000000000000000e+02 1.100000000000000000e+01
9.520000000000000000e+02 1.100000000000000000e+01
9.530000000000000000e+02 1.100000000000000000e+01
9.540000000000000000e+02 1.100000000000000000e+01
9.550000000000000000e+02 1.100000000000000000e+01
1.680000000000000000e+02 1.200000000000000000e+01
1.690000000000000000e+02 1.200000000000000000e+01
1.700000000000000000e+02 1.200000000000000000e+01
1.710000000000000000e+02 1.200000000000000000e+01
1.720000000000000000e+02 1.200000000000000000e+01
1.730000000000000000e+02 1.200000000000000000e+01
3.190000000000000000e+02 1.200000000000000000e+01
3.200000000000000000e+02 1.200000000000000000e+01
3.210000000000000000e+02 1.200000000000000000e+01
3.220000000000000000e+02 1.200000000000000000e+01
3.230000000000000000e+02 1.200000000000000000e+01
4.590000000000000000e+02 1.200000000000000000e+01
4.600000000000000000e+02 1.200000000000000000e+01
4.610000000000000000e+02 1.200000000000000000e+01
4.620000000000000000e+02 1.200000000000000000e+01
4.630000000000000000e+02 1.200000000000000000e+01
5.880000000000000000e+02 1.200000000000000000e+01
5.890000000000000000e+02 1.200000000000000000e+01
5.900000000000000000e+02 1.200000000000000000e+01
5.910000000000000000e+02 1.200000000000000000e+01
5.920000000000000000e+02 1.200000000000000000e+01
7.040000000000000000e+02 1.200000000000000000e+01
7.050000000000000000e+02 1.200000000000000000e+01
7.060000000000000000e+02 1.200000000000000000e+01
7.070000000000000000e+02 1.200000000000000000e+01
7.080000000000000000e+02 1.200000000000000000e+01
7.090000000000000000e+02 1.200000000000000000e+01
8.210000000000000000e+02 1.200000000000000000e+01
8.220000000000000000e+02 1.200000000000000000e+01
8.230000000000000000e+02 1.200000000000000000e+01
8.240000000000000000e+02 1.200000000000000000e+01
8.250000000000000000e+02 1.200000000000000000e+01
8.260000000000000000e+02 1.200000000000000000e+01
9.500000000000000000e+02 1.200000000000000000e+01
9.510000000000000000e+02 1.200000000000000000e+01
9.520000000000000000e+02 1.200000000000000000e+01
9.530000000000000000e+02 1.200000000000000000e+01
9.540000000000000000e+02 1.200000000000000000e+01
9.550000000000000000e+02 1.200000000000000000e+01
1.680000000000000000e+02 1.300000000000000000e+01
1.690000000000000000e+02 1.300000000000000000e+01
1.700000000000000000e+02 1.300000000000000000e+01
1.710000000000000000e+02 1.300000000000000000e+01
1.720000000000000000e+02 1.300000000000000000e+01
1.730000000000000000e+02 1.300000000000000000e+01
3.190000000000000000e+02 1.300000000000000000e+01
3.200000000000000000e+02 1.300000000000000000e+01
3.210000000000000000e+02 1.300000000000000000e+01
3.220000000000000000e+02 1.300000000000000000e+01
3.230000000000000000e+02 1.300000000000000000e+01
3.240000000000000000e+02 1.300000000000000000e+01
4.590000000000000000e+02 1.300000000000000000e+01
4.600000000000000000e+02 1.300000000000000000e+01
4.610000000000000000e+02 1.300000000000000000e+01
4.620000000000000000e+02 1.300000000000000000e+01
4.630000000000000000e+02 1.300000000000000000e+01
5.880000000000000000e+02 1.300000000000000000e+01
5.890000000000000000e+02 1.300000000000000000e+01
5.900000000000000000e+02 1.300000000000000000e+01
5.910000000000000000e+02 1.300000000000000000e+01
5.920000000000000000e+02 1.300000000000000000e+01
7.040000000000000000e+02 1.300000000000000000e+01
7.050000000000000000e+02 1.300000000000000000e+01
7.060000000000000000e+02 1.300000000000000000e+01
7.070000000000000000e+02 1.300000000000000000e+01
7.080000000000000000e+02 1.300000000000000000e+01
7.090000000000000000e+02 1.300000000000000000e+01
8.210000000000000000e+02 1.300000000000000000e+01
8.220000000000000000e+02 1.300000000000000000e+01
8.230000000000000000e+02 1.300000000000000000e+01
8.240000000000000000e+02 1.300000000000000000e+01
8.250000000000000000e+02 1.300000000000000000e+01
8.260000000000000000e+02 1.300000000000000000e+01
9.500000000000000000e+02 1.300000000000000000e+01
9.510000000000000000e+02 1.300000000000000000e+01
9.520000000000000000e+02 1.300000000000000000e+01
9.530000000000000000e+02 1.300000000000000000e+01
9.540000000000000000e+02 1.300000000000000000e+01
9.550000000000000000e+02 1.300000000000000000e+01
1.680000000000000000e+02 1.400000000000000000e+01
1.690000000000000000e+02 1.400000000000000000e+01
1.700000000000000000e+02 1.400000000000000000e+01
1.710000000000000000e+02 1.400000000000000000e+01
1.720000000000000000e+02 1.400000000000000000e+01
1.730000000000000000e+02 1.400000000000000000e+01
3.190000000000000000e+02 1.400000000000000000e+01
3.200000000000000000e+02 1.400000000000000000e+01
3.210000000000000000e+02 1.400000000000000000e+01
3.220000000000000000e+02 1.400000000000000000e+01
3.230000000000000000e+02 1.400000000000000000e+01
3.240000000000000000e+02 1.400000000000000000e+01
4.590000000000000000e+02 1.400000000000000000e+01
4.600000000000000000e+02 1.400000000000000000e+01
4.610000000000000000e+02 1.400000000000000000e+01
4.620000000000000000e+02 1.400000000000000000e+01
4.630000000000000000e+02 1.400000000000000000e+01
5.880000000000000000e+02 1.400000000000000000e+01
5.890000000000000000e+02 1.400000000000000000e+01
5.900000000000000000e+02 1.400000000000000000e+01
5.910000000000000000e+02 1.400000000000000000e+01
5.920000000000000000e+02 1.400000000000000000e+01
7.040000000000000000e+02 1.400000000000000000e+01
7.050000000000000000e+02 1.400000000000000000e+01
7.060000000000000000e+02 1.400000000000000000e+01
7.070000000000000000e+02 1.400000000000000000e+01
7.080000000000000000e+02 1.400000000000000000e+01
7.090000000000000000e+02 1.400000000000000000e+01
8.210000000000000000e+02 1.400000000000000000e+01
8.220000000000000000e+02 1.400000000000000000e+01
8.230000000000000000e+02 1.400000000000000000e+01
8.240000000000000000e+02 1.400000000000000000e+01
8.250000000000000000e+02 1.400000000000000000e+01
8.260000000000000000e+02 1.400000000000000000e+01
9.500000000000000000e+02 1.400000000000000000e+01
9.510000000000000000e+02 1.400000000000000000e+01
9.520000000000000000e+02 1.400000000000000000e+01
9.530000000000000000e+02 1.400000000000000000e+01
9.540000000000000000e+02 1.400000000000000000e+01
9.550000000000000000e+02 1.400000000000000000e+01
1.680000000000000000e+02 1.500000000000000000e+01
1.690000000000000000e+02 1.500000000000000000e+01
1.700000000000000000e+02 1.500000000000000000e+01
1.710000000000000000e+02 1.500000000000000000e+01
1.720000000000000000e+02 1.500000000000000000e+01
1.730000000000000000e+02 1.500000000000000000e+01
3.190000000000000000e+02 1.500000000000000000e+01
3.200000000000000000e+02 1.500000000000000000e+01
3.210000000000000000e+02 1.500000000000000000e+01
3.220000000000000000e+02 1.500000000000000000e+01
3.230000000000000000e+02 1.500000000000000000e+01
3.240000000000000000e+02 1.500000000000000000e+01
4.590000000000000000e+02 1.500000000000000000e+01
4.600000000000000000e+02 1.500000000000000000e+01
4.610000000000000000e+02 1.500000000000000000e+01
4.620000000000000000e+02 1.500000000000000000e+01
4.630000000000000000e+02 1.500000000000000000e+01
5.880000000000000000e+02 1.500000000000000000e+01
5.890000000000000000e+02 1.500000000000000000e+01
5.900000000000000000e+02 1.500000000000000000e+01
5.910000000000000000e+02 1.500000000000000000e+01
5.920000000000000000e+02 1.500000000000000000e+01
7.040000000000000000e+02 1.500000000000000000e+01
7.050000000000000000e+02 1.500000000000000000e+01
7.060000000000000000e+02 1.500000000000000000e+01
7.070000000000000000e+02 1.500000000000000000e+01
7.080000000000000000e+02 1.500000000000000000e+01
7.090000000000000000e+02 1.500000000000000000e+01
8.210000000000000000e+02 1.500000000000000000e+01
8.220000000000000000e+02 1.500000000000000000e+01
8.230000000000000000e+02 1.500000000000000000e+01
8.240000000000000000e+02 1.500000000000000000e+01
8.250000000000000000e+02 1.500000000000000000e+01
8.260000000000000000e+02 1.500000000000000000e+01
9.500000000000000000e+02 1.500000000000000000e+01
9.510000000000000000e+02 1.500000000000000000e+01
9.520000000000000000e+02 1.500000000000000000e+01
9.530000000000000000e+02 1.500000000000000000e+01
9.540000000000000000e+02 1.500000000000000000e+01
9.550000000000000000e+02 1.500000000000000000e+01
1.680000000000000000e+02 1.600000000000000000e+01
1.690000000000000000e+02 1.600000000000000000e+01
1.700000000000000000e+02 1.600000000000000000e+01
1.710000000000000000e+02 1.600000000000000000e+01
1.720000000000000000e+02 1.600000000000000000e+01
1.730000000000000000e+02 1.600000000000000000e+01
3.190000000000000000e+02 1.600000000000000000e+01
3.200000000000000000e+02 1.600000000000000000e+01
3.210000000000000000e+02 1.600000000000000000e+01
3.220000000000000000e+02 1.600000000000000000e+01
3.230000000000000000e+02 1.600000000000000000e+01
3.240000000000000000e+02 1.600000000000000000e+01
4.590000000000000000e+02 1.600000000000000000e+01
4.600000000000000000e+02 1.600000000000000000e+01
4.610000000000000000e+02 1.600000000000000000e+01
4.620000000000000000e+02 1.600000000000000000e+01
4.630000000000000000e+02 1.600000000000000000e+01
5.880000000000000000e+02 1.600000000000000000e+01
5.890000000000000000e+02 1.600000000000000000e+01
5.900000000000000000e+02 1.600000000000000000e+01
5.910000000000000000e+02 1.600000000000000000e+01
5.920000000000000000e+02 1.600000000000000000e+01
7.040000000000000000e+02 1.600000000000000000e+01
7.050000000000000000e+02 1.600000000000000000e+01
7.060000000000000000e+02 1.600000000000000000e+01
7.070000000000000000e+02 1.600000000000000000e+01
7.080000000000000000e+02 1.600000000000000000e+01
7.090000000000000000e+02 1.600000000000000000e+01
8.210000000000000000e+02 1.600000000000000000e+01
8.220000000000000000e+02 1.600000000000000000e+01
8.230000000000000000e+02 1.600000000000000000e+01
8.240000000000000000e+02 1.600000000000000000e+01
8.250000000000000000e+02 1.600000000000000000e+01
8.260000000000000000e+02 1.600000000000000000e+01
9.500000000000000000e+02 1.600000000000000000e+01
9.510000000000000000e+02 1.600000000000000000e+01
9.520000000000000000e+02 1.600000000000000000e+01
9.530000000000000000e+02 1.600000000000000000e+01
9.540000000000000000e+02 1.600000000000000000e+01
9.550000000000000000e+02 1.600000000000000000e+01
1.680000000000000000e+02 1.700000000000000000e+01
1.690000000000000000e+02 1.700000000000000000e+01
1.700000000000000000e+02 1.700000000000000000e+01
1.710000000000000000e+02 1.700000000000000000e+01
1.720000000000000000e+02 1.700000000000000000e+01
1.730000000000000000e+02 1.700000000000000000e+01
3.190000000000000000e+02 1.700000000000000000e+01
3.200000000000000000e+02 1.700000000000000000e+01
3.210000000000000000e+02 1.700000000000000000e+01
3.220000000000000000e+02 1.700000000000000000e+01
3.230000000000000000e+02 1.700000000000000000e+01
3.240000000000000000e+02 1.700000000000000000e+01
4.590000000000000000e+02 1.700000000000000000e+01
4.600000000000000000e+02 1.700000000000000000e+01
4.610000000000000000e+02 1.700000000000000000e+01
4.620000000000000000e+02 1.700000000000000000e+01
4.630000000000000000e+02 1.700000000000000000e+01
5.880000000000000000e+02 1.700000000000000000e+01
5.890000000000000000e+02 1.700000000000000000e+01
5.900000000000000000e+02 1.700000000000000000e+01
5.910000000000000000e+02 1.700000000000000000e+01
5.920000000000000000e+02 1.700000000000000000e+01
7.040000000000000000e+02 1.700000000000000000e+01
7.050000000000000000e+02 1.700000000000000000e+01
7.060000000000000000e+02 1.700000000000000000e+01
7.070000000000000000e+02 1.700000000000000000e+01
7.080000000000000000e+02 1.700000000000000000e+01
7.090000000000000000e+02 1.700000000000000000e+01
8.210000000000000000e+02 1.700000000000000000e+01
8.220000000000000000e+02 1.700000000000000000e+01
8.230000000000000000e+02 1.700000000000000000e+01
8.240000000000000000e+02 1.700000000000000000e+01
8.250000000000000000e+02 1.700000000000000000e+01
8.260000000000000000e+02 1.700000000000000000e+01
9.500000000000000000e+02 1.700000000000000000e+01
9.510000000000000000e+02 1.700000000000000000e+01
9.520000000000000000e+02 1.700000000000000000e+01
9.530000000000000000e+02 1.700000000000000000e+01
9.540000000000000000e+02 1.700000000000000000e+01
9.550000000000000000e+02 1.700000000000000000e+01
1.680000000000000000e+02 1.800000000000000000e+01
1.690000000000000000e+02 1.800000000000000000e+01
1.700000000000000000e+02 1.800000000000000000e+01
1.710000000000000000e+02 1.800000000000000000e+01
1.720000000000000000e+02 1.800000000000000000e+01
1.730000000000000000e+02 1.800000000000000000e+01
3.190000000000000000e+02 1.800000000000000000e+01
3.200000000000000000e+02 1.800000000000000000e+01
3.210000000000000000e+02 1.800000000000000000e+01
3.220000000000000000e+02 1.800000000000000000e+01
3.230000000000000000e+02 1.800000000000000000e+01
3.240000000000000000e+02 1.800000000000000000e+01
4.590000000000000000e+02 1.800000000000000000e+01
4.600000000000000000e+02 1.800000000000000000e+01
4.610000000000000000e+02 1.800000000000000000e+01
4.620000000000000000e+02 1.800000000000000000e+01
4.630000000000000000e+02 1.800000000000000000e+01
5.880000000000000000e+02 1.800000000000000000e+01
5.890000000000000000e+02 1.800000000000000000e+01
5.900000000000000000e+02 1.800000000000000000e+01
5.910000000000000000e+02 1.800000000000000000e+01
5.920000000000000000e+02 1.800000000000000000e+01
7.040000000000000000e+02 1.800000000000000000e+01
7.050000000000000000e+02 1.800000000000000000e+01
7.060000000000000000e+02 1.800000000000000000e+01
7.070000000000000000e+02 1.800000000000000000e+01
7.080000000000000000e+02 1.800000000000000000e+01
7.090000000000000000e+02 1.800000000000000000e+01
8.210000000000000000e+02 1.800000000000000000e+01
8.220000000000000000e+02 1.800000000000000000e+01
8.230000000000000000e+02 1.800000000000000000e+01
8.240000000000000000e+02 1.800000000000000000e+01
8.250000000000000000e+02 1.800000000000000000e+01
8.260000000000000000e+02 1.800000000000000000e+01
9.500000000000000000e+02 1.800000000000000000e+01
9.510000000000000000e+02 1.800000000000000000e+01
9.520000000000000000e+02 1.800000000000000000e+01
9.530000000000000000e+02 1.800000000000000000e+01
9.540000000000000000e+02 1.800000000000000000e+01
9.550000000000000000e+02 1.800000000000000000e+01
1.680000000000000000e+02 1.900000000000000000e+01
1.690000000000000000e+02 1.900000000000000000e+01
1.700000000000000000e+02 1.900000000000000000e+01
1.710000000000000000e+02 1.900000000000000000e+01
1.720000000000000000e+02 1.900000000000000000e+01
1.730000000000000000e+02 1.900000000000000000e+01
3.190000000000000000e+02 1.900000000000000000e+01
3.200000000000000000e+02 1.900000000000000000e+01
3.210000000000000000e+02 1.900000000000000000e+01
3.220000000000000000e+02 1.900000000000000000e+01
3.230000000000000000e+02 1.900000000000000000e+01
3.240000000000000000e+02 1.900000000000000000e+01
4.590000000000000000e+02 1.900000000000000000e+01
4.600000000000000000e+02 1.900000000000000000e+01
4.610000000000000000e+02 1.900000000000000000e+01
4.620000000000000000e+02 1.900000000000000000e+01
4.630000000000000000e+02 1.900000000000000000e+01
5.880000000000000000e+02 1.900000000000000000e+01
5.890000000000000000e+02 1.900000000000000000e+01
5.900000000000000000e+02 1.900000000000000000e+01
5.910000000000000000e+02 1.900000000000000000e+01
5.920000000000000000e+02 1.900000000000000000e+01
7.040000000000000000e+02 1.900000000000000000e+01
7.050000000000000000e+02 1.900000000000000000e+01
7.060000000000000000e+02 1.900000000000000000e+01
7.070000000000000000e+02 1.900000000000000000e+01
7.080000000000000000e+02 1.900000000000000000e+01
7.090000000000000000e+02 1.900000000000000000e+01
8.210000000000000000e+02 1.900000000000000000e+01
8.220000000000000000e+02 1.900000000000000000e+01
8.230000000000000000e+02 1.900000000000000000e+01
8.240000000000000000e+02 1.900000000000000000e+01
8.250000000000000000e+02 1.900000000000000000e+01
8.260000000000000000e+02 1.900000000000000000e+01
9.500000000000000000e+02 1.900000000000000000e+01
9.510000000000000000e+02 1.900000000000000000e+01
9.520000000000000000e+02 1.900000000000000000e+01
9.530000000000000000e+02 1.900000000000000000e+01
9.540000000000000000e+02 1.900000000000000000e+01
9.550000000000000000e+02 1.900000000000000000e+01
1.680000000000000000e+02 2.000000000000000000e+01
1.690000000000000000e+02 2.000000000000000000e+01
1.700000000000000000e+02 2.000000000000000000e+01
1.710000000000000000e+02 2.000000000000000000e+01
1.720000000000000000e+02 2.000000000000000000e+01
1.730000000000000000e+02 2.000000000000000000e+01
3.190000000000000000e+02 2.000000000000000000e+01
3.200000000000000000e+02 2.000000000000000000e+01
3.210000000000000000e+02 2.000000000000000000e+01
3.220000000000000000e+02 2.000000000000000000e+01
3.230000000000000000e+02 2.000000000000000000e+01
3.240000000000000000e+02 2.000000000000000000e+01
4.590000000000000000e+02 2.000000000000000000e+01
4.600000000000000000e+02 2.000000000000000000e+01
4.610000000000000000e+02 2.000000000000000000e+01
4.620000000000000000e+02 2.000000000000000000e+01
4.630000000000000000e+02 2.000000000000000000e+01
5.880000000000000000e+02 2.000000000000000000e+01
5.890000000000000000e+02 2.000000000000000000e+01
5.900000000000000000e+02 2.000000000000000000e+01
5.910000000000000000e+02 2.000000000000000000e+01
5.920000000000000000e+02 2.000000000000000000e+01
7.040000000000000000e+02 2.000000000000000000e+01
7.050000000000000000e+02 2.000000000000000000e+01
7.060000000000000000e+02 2.000000000000000000e+01
7.070000000000000000e+02 2.000000000000000000e+01
7.080000000000000000e+02 2.000000000000000000e+01
7.090000000000000000e+02 2.000000000000000000e+01
8.210000000000000000e+02 2.000000000000000000e+01
8.220000000000000000e+02 2.000000000000000000e+01
8.230000000000000000e+02 2.000000000000000000e+01
8.240000000000000000e+02 2.000000000000000000e+01
8.250000000000000000e+02 2.000000000000000000e+01
8.260000000000000000e+02 2.000000000000000000e+01
9.500000000000000000e+02 2.000000000000000000e+01
9.510000000000000000e+02 2.000000000000000000e+01
9.520000000000000000e+02 2.000000000000000000e+01
9.530000000000000000e+02 2.000000000000000000e+01
9.540000000000000000e+02 2.000000000000000000e+01
9.550000000000000000e+02 2.000000000000000000e+01
1.680000000000000000e+02 2.100000000000000000e+01
1.690000000000000000e+02 2.100000000000000000e+01
1.700000000000000000e+02 2.100000000000000000e+01
1.710000000000000000e+02 2.100000000000000000e+01
1.720000000000000000e+02 2.100000000000000000e+01
1.730000000000000000e+02 2.100000000000000000e+01
3.190000000000000000e+02 2.100000000000000000e+01
3.200000000000000000e+02 2.100000000000000000e+01
3.210000000000000000e+02 2.100000000000000000e+01
3.220000000000000000e+02 2.100000000000000000e+01
3.230000000000000000e+02 2.100000000000000000e+01
3.240000000000000000e+02 2.100000000000000000e+01
4.590000000000000000e+02 2.100000000000000000e+01
4.600000000000000000e+02 2.100000000000000000e+01
4.610000000000000000e+02 2.100000000000000000e+01
4.620000000000000000e+02 2.100000000000000000e+01
4.630000000000000000e+02 2.100000000000000000e+01
5.880000000000000000e+02 2.100000000000000000e+01
5.890000000000000000e+02 2.100000000000000000e+01
5.900000000000000000e+02 2.100000000000000000e+01
5.910000000000000000e+02 2.100000000000000000e+01
5.920000000000000000e+02 2.100000000000000000e+01
7.040000000000000000e+02 2.100000000000000000e+01
7.050000000000000000e+02 2.100000000000000000e+01
7.060000000000000000e+02 2.100000000000000000e+01
7.070000000000000000e+02 2.100000000000000000e+01
7.080000000000000000e+02 2.100000000000000000e+01
7.090000000000000000e+02 2.100000000000000000e+01
8.210000000000000000e+02 2.100000000000000000e+01
8.220000000000000000e+02 2.100000000000000000e+01
8.230000000000000000e+02 2.100000000000000000e+01
8.240000000000000000e+02 2.100000000000000000e+01
8.250000000000000000e+02 2.100000000000000000e+01
8.260000000000000000e+02 2.100000000000000000e+01
9.500000000000000000e+02 2.100000000000000000e+01
9.510000000000000000e+02 2.100000000000000000e+01
9.520000000000000000e+02 2.100000000000000000e+01
9.530000000000000000e+02 2.100000000000000000e+01
9.540000000000000000e+02 2.100000000000000000e+01
9.550000000000000000e+02 2.100000000000000000e+01
1.680000000000000000e+02 2.200000000000000000e+01
1.690000000000000000e+02 2.200000000000000000e+01
1.700000000000000000e+02 2.200000000000000000e+01
1.710000000000000000e+02 2.200000000000000000e+01
1.720000000000000000e+02 2.200000000000000000e+01
1.730000000000000000e+02 2.200000000000000000e+01
3.190000000000000000e+02 2.200000000000000000e+01
3.200000000000000000e+02 2.200000000000000000e+01
3.210000000000000000e+02 2.200000000000000000e+01
3.220000000000000000e+02 2.200000000000000000e+01
3.230000000000000000e+02 2.200000000000000000e+01
3.240000000000000000e+02 2.200000000000000000e+01
4.590000000000000000e+02 2.200000000000000000e+01
4.600000000000000000e+02 2.200000000000000000e+01
4.610000000000000000e+02 2.200000000000000000e+01
4.620000000000000000e+02 2.200000000000000000e+01
4.630000000000000000e+02 2.200000000000000000e+01
5.880000000000000000e+02 2.200000000000000000e+01
5.890000000000000000e+02 2.200000000000000000e+01
5.900000000000000000e+02 2.200000000000000000e+01
5.910000000000000000e+02 2.200000000000000000e+01
5.920000000000000000e+02 2.200000000000000000e+01
5.930000000000000000e+02 2.200000000000000000e+01
7.040000000000000000e+02 2.200000000000000000e+01
7.050000000000000000e+02 2.200000000000000000e+01
7.060000000000000000e+02 2.200000000000000000e+01
7.070000000000000000e+02 2.200000000000000000e+01
7.080000000000000000e+02 2.200000000000000000e+01
7.090000000000000000e+02 2.200000000000000000e+01
8.210000000000000000e+02 2.200000000000000000e+01
8.220000000000000000e+02 2.200000000000000000e+01
8.230000000000000000e+02 2.200000000000000000e+01
8.240000000000000000e+02 2.200000000000000000e+01
8.250000000000000000e+02 2.200000000000000000e+01
8.260000000000000000e+02 2.200000000000000000e+01
9.500000000000000000e+02 2.200000000000000000e+01
9.510000000000000000e+02 2.200000000000000000e+01
9.520000000000000000e+02 2.200000000000000000e+01
9.530000000000000000e+02 2.200000000000000000e+01
9.540000000000000000e+02 2.200000000000000000e+01
9.550000000000000000e+02 2.200000000000000000e+01
1.680000000000000000e+02 2.300000000000000000e+01
1.690000000000000000e+02 2.300000000000000000e+01
1.700000000000000000e+02 2.300000000000000000e+01
1.710000000000000000e+02 2.300000000000000000e+01
1.720000000000000000e+02 2.300000000000000000e+01
1.730000000000000000e+02 2.300000000000000000e+01
3.190000000000000000e+02 2.300000000000000000e+01
3.200000000000000000e+02 2.300000000000000000e+01
3.210000000000000000e+02 2.300000000000000000e+01
3.220000000000000000e+02 2.300000000000000000e+01
3.230000000000000000e+02 2.300000000000000000e+01
3.240000000000000000e+02 2.300000000000000000e+01
4.590000000000000000e+02 2.300000000000000000e+01
4.600000000000000000e+02 2.300000000000000000e+01
4.610000000000000000e+02 2.300000000000000000e+01
4.620000000000000000e+02 2.300000000000000000e+01
4.630000000000000000e+02 2.300000000000000000e+01
5.880000000000000000e+02 2.300000000000000000e+01
5.890000000000000000e+02 2.300000000000000000e+01
5.900000000000000000e+02 2.300000000000000000e+01
5.910000000000000000e+02 2.300000000000000000e+01
5.920000000000000000e+02 2.300000000000000000e+01
5.930000000000000000e+02 2.300000000000000000e+01
7.040000000000000000e+02 2.300000000000000000e+01
7.050000000000000000e+02 2.300000000000000000e+01
7.060000000000000000e+02 2.300000000000000000e+01
7.070000000000000000e+02 2.300000000000000000e+01
7.080000000000000000e+02 2.300000000000000000e+01
7.090000000000000000e+02 2.300000000000000000e+01
8.210000000000000000e+02 2.300000000000000000e+01
8.220000000000000000e+02 2.300000000000000000e+01
8.230000000000000000e+02 2.300000000000000000e+01
8.240000000000000000e+02 2.300000000000000000e+01
8.250000000000000000e+02 2.300000000000000000e+01
8.260000000000000000e+02 2.300000000000000000e+01
9.500000000000000000e+02 2.300000000000000000e+01
9.510000000000000000e+02 2.300000000000000000e+01
9.520000000000000000e+02 2.300000000000000000e+01
9.530000000000000000e+02 2.300000000000000000e+01
9.540000000000000000e+02 2.300000000000000000e+01
9.550000000000000000e+02 2.300000000000000000e+01
1.680000000000000000e+02 2.400000000000000000e+01
1.690000000000000000e+02 2.400000000000000000e+01
1.700000000000000000e+02 2.400000000000000000e+01
1.710000000000000000e+02 2.400000000000000000e+01
1.720000000000000000e+02 2.400000000000000000e+01
1.730000000000000000e+02 2.400000000000000000e+01
3.190000000000000000e+02 2.400000000000000000e+01
3.200000000000000000e+02 2.400000000000000000e+01
3.210000000000000000e+02 2.400000000000000000e+01
3.220000000000000000e+02 2.400000000000000000e+01
3.230000000000000000e+02 2.400000000000000000e+01
3.240000000000000000e+02 2.400000000000000000e+01
4.580000000000000000e+02 2.400000000000000000e+01
4.590000000000000000e+02 2.400000000000000000e+01
4.600000000000000000e+02 2.400000000000000000e+01
4.610000000000000000e+02 2.400000000000000000e+01
4.620000000000000000e+02 2.400000000000000000e+01
4.630000000000000000e+02 2.400000000000000000e+01
5.880000000000000000e+02 2.400000000000000000e+01
5.890000000000000000e+02 2.400000000000000000e+01
5.900000000000000000e+02 2.400000000000000000e+01
5.910000000000000000e+02 2.400000000000000000e+01
5.920000000000000000e+02 2.400000000000000000e+01
5.930000000000000000e+02 2.400000000000000000e+01
7.040000000000000000e+02 2.400000000000000000e+01
7.050000000000000000e+02 2.400000000000000000e+01
7.060000000000000000e+02 2.400000000000000000e+01
7.070000000000000000e+02 2.400000000000000000e+01
7.080000000000000000e+02 2.400000000000000000e+01
7.090000000000000000e+02 2.400000000000000000e+01
8.210000000000000000e+02 2.400000000000000000e+01
8.220000000000000000e+02 2.400000000000000000e+01
8.230000000000000000e+02 2.400000000000000000e+01
8.240000000000000000e+02 2.400000000000000000e+01
8.250000000000000000e+02 2.400000000000000000e+01
8.260000000000000000e+02 2.400000000000000000e+01
9.500000000000000000e+02 2.400000000000000000e+01
9.510000000000000000e+02 2.400000000000000000e+01
9.520000000000000000e+02 2.400000000000000000e+01
9.530000000000000000e+02 2.400000000000000000e+01
9.540000000000000000e+02 2.400000000000000000e+01
9.550000000000000000e+02 2.400000000000000000e+01
1.680000000000000000e+02 2.500000000000000000e+01
1.690000000000000000e+02 2.500000000000000000e+01
1.700000000000000000e+02 2.500000000000000000e+01
1.710000000000000000e+02 2.500000000000000000e+01
1.720000000000000000e+02 2.500000000000000000e+01
1.730000000000000000e+02 2.500000000000000000e+01
3.190000000000000000e+02 2.500000000000000000e+01
3.200000000000000000e+02 2.500000000000000000e+01
3.210000000000000000e+02 2.500000000000000000e+01
3.220000000000000000e+02 2.500000000000000000e+01
3.230000000000000000e+02 2.500000000000000000e+01
3.240000000000000000e+02 2.500000000000000000e+01
4.580000000000000000e+02 2.500000000000000000e+01
4.590000000000000000e+02 2.500000000000000000e+01
4.600000000000000000e+02 2.500000000000000000e+01
4.610000000000000000e+02 2.500000000000000000e+01
4.620000000000000000e+02 2.500000000000000000e+01
4.630000000000000000e+02 2.500000000000000000e+01
5.880000000000000000e+02 2.500000000000000000e+01
5.890000000000000000e+02 2.500000000000000000e+01
5.900000000000000000e+02 2.500000000000000000e+01
5.910000000000000000e+02 2.500000000000000000e+01
5.920000000000000000e+02 2.500000000000000000e+01
5.930000000000000000e+02 2.500000000000000000e+01
7.040000000000000000e+02 2.500000000000000000e+01
7.050000000000000000e+02 2.500000000000000000e+01
7.060000000000000000e+02 2.500000000000000000e+01
7.070000000000000000e+02 2.500000000000000000e+01
7.080000000000000000e+02 2.500000000000000000e+01
7.090000000000000000e+02 2.500000000000000000e+01
8.210000000000000000e+02 2.500000000000000000e+01
8.220000000000000000e+02 2.500000000000000000e+01
8.230000000000000000e+02 2.500000000000000000e+01
8.240000000000000000e+02 2.500000000000000000e+01
8.250000000000000000e+02 2.500000000000000000e+01
8.260000000000000000e+02 2.500000000000000000e+01
9.500000000000000000e+02 2.500000000000000000e+01
9.510000000000000000e+02 2.500000000000000000e+01
9.520000000000000000e+02 2.500000000000000000e+01
9.530000000000000000e+02 2.500000000000000000e+01
9.540000000000000000e+02 2.500000000000000000e+01
9.550000000000000000e+02 2.500000000000000000e+01
1.680000000000000000e+02 2.600000000000000000e+01
1.690000000000000000e+02 2.600000000000000000e+01
1.700000000000000000e+02 2.600000000000000000e+01
1.710000000000000000e+02 2.600000000000000000e+01
1.720000000000000000e+02 2.600000000000000000e+01
1.730000000000000000e+02 2.600000000000000000e+01
3.190000000000000000e+02 2.600000000000000000e+01
3.200000000000000000e+02 2.600000000000000000e+01
3.210000000000000000e+02 2.600000000000000000e+01
3.220000000000000000e+02 2.600000000000000000e+01
3.230000000000000000e+02 2.600000000000000000e+01
3.240000000000000000e+02 2.600000000000000000e+01
4.580000000000000000e+02 2.600000000000000000e+01
4.590000000000000000e+02 2.600000000000000000e+01
4.600000000000000000e+02 2.600000000000000000e+01
4.610000000000000000e+02 2.600000000000000000e+01
4.620000000000000000e+02 2.600000000000000000e+01
4.630000000000000000e+02 2.600000000000000000e+01
5.880000000000000000e+02 2.600000000000000000e+01
5.890000000000000000e+02 2.600000000000000000e+01
5.900000000000000000e+02 2.600000000000000000e+01
5.910000000000000000e+02 2.600000000000000000e+01
5.920000000000000000e+02 2.600000000000000000e+01
5.930000000000000000e+02 2.600000000000000000e+01
7.040000000000000000e+02 2.600000000000000000e+01
7.050000000000000000e+02 2.600000000000000000e+01
7.060000000000000000e+02 2.600000000000000000e+01
7.070000000000000000e+02 2.600000000000000000e+01
7.080000000000000000e+02 2.600000000000000000e+01
7.090000000000000000e+02 2.600000000000000000e+01
8.210000000000000000e+02 2.600000000000000000e+01
8.220000000000000000e+02 2.600000000000000000e+01
8.230000000000000000e+02 2.600000000000000000e+01
8.240000000000000000e+02 2.600000000000000000e+01
8.250000000000000000e+02 2.600000000000000000e+01
8.260000000000000000e+02 2.600000000000000000e+01
9.500000000000000000e+02 2.600000000000000000e+01
9.510000000000000000e+02 2.600000000000000000e+01
9.520000000000000000e+02 2.600000000000000000e+01
9.530000000000000000e+02 2.600000000000000000e+01
9.540000000000000000e+02 2.600000000000000000e+01
9.550000000000000000e+02 2.600000000000000000e+01
1.680000000000000000e+02 2.700000000000000000e+01
1.690000000000000000e+02 2.700000000000000000e+01
1.700000000000000000e+02 2.700000000000000000e+01
1.710000000000000000e+02 2.700000000000000000e+01
1.720000000000000000e+02 2.700000000000000000e+01
1.730000000000000000e+02 2.700000000000000000e+01
3.190000000000000000e+02 2.700000000000000000e+01
3.200000000000000000e+02 2.700000000000000000e+01
3.210000000000000000e+02 2.700000000000000000e+01
3.220000000000000000e+02 2.700000000000000000e+01
3.230000000000000000e+02 2.700000000000000000e+01
3.240000000000000000e+02 2.700000000000000000e+01
4.580000000000000000e+02 2.700000000000000000e+01
4.590000000000000000e+02 2.700000000000000000e+01
4.600000000000000000e+02 2.700000000000000000e+01
4.610000000000000000e+02 2.700000000000000000e+01
4.620000000000000000e+02 2.700000000000000000e+01
4.630000000000000000e+02 2.700000000000000000e+01
5.880000000000000000e+02 2.700000000000000000e+01
5.890000000000000000e+02 2.700000000000000000e+01
5.900000000000000000e+02 2.700000000000000000e+01
5.910000000000000000e+02 2.700000000000000000e+01
5.920000000000000000e+02 2.700000000000000000e+01
5.930000000000000000e+02 2.700000000000000000e+01
7.040000000000000000e+02 2.700000000000000000e+01
7.050000000000000000e+02 2.700000000000000000e+01
7.060000000000000000e+02 2.700000000000000000e+01
7.070000000000000000e+02 2.700000000000000000e+01
7.080000000000000000e+02 2.700000000000000000e+01
7.090000000000000000e+02 2.700000000000000000e+01
8.210000000000000000e+02 2.700000000000000000e+01
8.220000000000000000e+02 2.700000000000000000e+01
8.230000000000000000e+02 2.700000000000000000e+01
8.240000000000000000e+02 2.700000000000000000e+01
8.250000000000000000e+02 2.700000000000000000e+01
8.260000000000000000e+02 2.700000000000000000e+01
9.500000000000000000e+02 2.700000000000000000e+01
9.510000000000000000e+02 2.700000000000000000e+01
9.520000000000000000e+02 2.700000000000000000e+01
9.530000000000000000e+02 2.700000000000000000e+01
9.540000000000000000e+02 2.700000000000000000e+01
9.550000000000000000e+02 2.700000000000000000e+01
1.680000000000000000e+02 2.800000000000000000e+01
1.690000000000000000e+02 2.800000000000000000e+01
1.700000000000000000e+02 2.800000000000000000e+01
1.710000000000000000e+02 2.800000000000000000e+01
1.720000000000000000e+02 2.800000000000000000e+01
1.730000000000000000e+02 2.800000000000000000e+01
3.190000000000000000e+02 2.800000000000000000e+01
3.200000000000000000e+02 2.800000000000000000e+01
3.210000000000000000e+02 2.800000000000000000e+01
3.220000000000000000e+02 2.800000000000000000e+01
3.230000000000000000e+02 2.800000000000000000e+01
3.240000000000000000e+02 2.800000000000000000e+01
4.580000000000000000e+02 2.800000000000000000e+01
4.590000000000000000e+02 2.800000000000000000e+01
4.600000000000000000e+02 2.800000000000000000e+01
4.610000000000000000e+02 2.800000000000000000e+01
4.620000000000000000e+02 2.800000000000000000e+01
4.630000000000000000e+02 2.800000000000000000e+01
5.880000000000000000e+02 2.800000000000000000e+01
5.890000000000000000e+02 2.800000000000000000e+01
5.900000000000000000e+02 2.800000000000000000e+01
5.910000000000000000e+02 2.800000000000000000e+01
5.920000000000000000e+02 2.800000000000000000e+01
5.930000000000000000e+02 2.800000000000000000e+01
7.040000000000000000e+02 2.800000000000000000e+01
7.050000000000000000e+02 2.800000000000000000e+01
7.060000000000000000e+02 2.800000000000000000e+01
7.070000000000000000e+02 2.800000000000000000e+01
7.080000000000000000e+02 2.800000000000000000e+01
7.090000000000000000e+02 2.800000000000000000e+01
8.210000000000000000e+02 2.800000000000000000e+01
8.220000000000000000e+02 2.800000000000000000e+01
8.230000000000000000e+02 2.800000000000000000e+01
8.240000000000000000e+02 2.800000000000000000e+01
8.250000000000000000e+02 2.800000000000000000e+01
8.260000000000000000e+02 2.800000000000000000e+01
9.500000000000000000e+02 2.800000000000000000e+01
9.510000000000000000e+02 2.800000000000000000e+01
9.520000000000000000e+02 2.800000000000000000e+01
9.530000000000000000e+02 2.800000000000000000e+01
9.540000000000000000e+02 2.800000000000000000e+01
9.550000000000000000e+02 2.800000000000000000e+01
1.680000000000000000e+02 2.900000000000000000e+01
1.690000000000000000e+02 2.900000000000000000e+01
1.700000000000000000e+02 2.900000000000000000e+01
1.710000000000000000e+02 2.900000000000000000e+01
1.720000000000000000e+02 2.900000000000000000e+01
1.730000000000000000e+02 2.900000000000000000e+01
3.190000000000000000e+02 2.900000000000000000e+01
3.200000000000000000e+02 2.900000000000000000e+01
3.210000000000000000e+02 2.900000000000000000e+01
3.220000000000000000e+02 2.900000000000000000e+01
3.230000000000000000e+02 2.900000000000000000e+01
3.240000000000000000e+02 2.900000000000000000e+01
4.580000000000000000e+02 2.900000000000000000e+01
4.590000000000000000e+02 2.900000000000000000e+01
4.600000000000000000e+02 2.900000000000000000e+01
4.610000000000000000e+02 2.900000000000000000e+01
4.620000000000000000e+02 2.900000000000000000e+01
4.630000000000000000e+02 2.900000000000000000e+01
5.880000000000000000e+02 2.900000000000000000e+01
5.890000000000000000e+02 2.900000000000000000e+01
5.900000000000000000e+02 2.900000000000000000e+01
5.910000000000000000e+02 2.900000000000000000e+01
5.920000000000000000e+02 2.900000000000000000e+01
5.930000000000000000e+02 2.900000000000000000e+01
7.040000000000000000e+02 2.900000000000000000e+01
7.050000000000000000e+02 2.900000000000000000e+01
7.060000000000000000e+02 2.900000000000000000e+01
7.070000000000000000e+02 2.900000000000000000e+01
7.080000000000000000e+02 2.900000000000000000e+01
7.090000000000000000e+02 2.900000000000000000e+01
8.210000000000000000e+02 2.900000000000000000e+01
8.220000000000000000e+02 2.900000000000000000e+01
8.230000000000000000e+02 2.900000000000000000e+01
8.240000000000000000e+02 2.900000000000000000e+01
8.250000000000000000e+02 2.900000000000000000e+01
8.260000000000000000e+02 2.900000000000000000e+01
9.500000000000000000e+02 2.900000000000000000e+01
9.510000000000000000e+02 2.900000000000000000e+01
9.520000000000000000e+02 2.900000000000000000e+01
9.530000000000000000e+02 2.900000000000000000e+01
9.540000000000000000e+02 2.900000000000000000e+01
9.550000000000000000e+02 2.900000000000000000e+01
1.680000000000000000e+02 3.000000000000000000e+01
1.690000000000000000e+02 3.000000000000000000e+01
1.700000000000000000e+02 3.000000000000000000e+01
1.710000000000000000e+02 3.000000000000000000e+01
1.720000000000000000e+02 3.000000000000000000e+01
1.730000000000000000e+02 3.000000000000000000e+01
3.190000000000000000e+02 3.000000000000000000e+01
3.200000000000000000e+02 3.000000000000000000e+01
3.210000000000000000e+02 3.000000000000000000e+01
3.220000000000000000e+02 3.000000000000000000e+01
3.230000000000000000e+02 3.000000000000000000e+01
3.240000000000000000e+02 3.000000000000000000e+01
4.580000000000000000e+02 3.000000000000000000e+01
4.590000000000000000e+02 3.000000000000000000e+01
4.600000000000000000e+02 3.000000000000000000e+01
4.610000000000000000e+02 3.000000000000000000e+01
4.620000000000000000e+02 3.000000000000000000e+01
4.630000000000000000e+02 3.000000000000000000e+01
5.880000000000000000e+02 3.000000000000000000e+01
5.890000000000000000e+02 3.000000000000000000e+01
5.900000000000000000e+02 3.000000000000000000e+01
5.910000000000000000e+02 3.000000000000000000e+01
5.920000000000000000e+02 3.000000000000000000e+01
5.930000000000000000e+02 3.000000000000000000e+01
7.040000000000000000e+02 3.000000000000000000e+01
7.050000000000000000e+02 3.000000000000000000e+01
7.060000000000000000e+02 3.000000000000000000e+01
7.070000000000000000e+02 3.000000000000000000e+01
7.080000000000000000e+02 3.000000000000000000e+01
7.090000000000000000e+02 3.000000000000000000e+01
8.210000000000000000e+02 3.000000000000000000e+01
8.220000000000000000e+02 3.000000000000000000e+01
8.230000000000000000e+02 3.000000000000000000e+01
8.240000000000000000e+02 3.000000000000000000e+01
8.250000000000000000e+02 3.000000000000000000e+01
8.260000000000000000e+02 3.000000000000000000e+01
9.500000000000000000e+02 3.000000000000000000e+01
9.510000000000000000e+02 3.000000000000000000e+01
9.520000000000000000e+02 3.000000000000000000e+01
9.530000000000000000e+02 3.000000000000000000e+01
9.540000000000000000e+02 3.000000000000000000e+01
9.550000000000000000e+02 3.000000000000000000e+01
1.680000000000000000e+02 3.100000000000000000e+01
1.690000000000000000e+02 3.100000000000000000e+01
1.700000000000000000e+02 3.100000000000000000e+01
1.710000000000000000e+02 3.100000000000000000e+01
1.720000000000000000e+02 3.100000000000000000e+01
1.730000000000000000e+02 3.100000000000000000e+01
3.190000000000000000e+02 3.100000000000000000e+01
3.200000000000000000e+02 3.100000000000000000e+01
3.210000000000000000e+02 3.100000000000000000e+01
3.220000000000000000e+02 3.100000000000000000e+01
3.230000000000000000e+02 3.100000000000000000e+01
3.240000000000000000e+02 3.100000000000000000e+01
4.580000000000000000e+02 3.100000000000000000e+01
4.590000000000000000e+02 3.100000000000000000e+01
4.600000000000000000e+02 3.100000000000000000e+01
4.610000000000000000e+02 3.100000000000000000e+01
4.620000000000000000e+02 3.100000000000000000e+01
4.630000000000000000e+02 3.100000000000000000e+01
5.880000000000000000e+02 3.100000000000000000e+01
5.890000000000000000e+02 3.100000000000000000e+01
5.900000000000000000e+02 3.100000000000000000e+01
5.910000000000000000e+02 3.100000000000000000e+01
5.920000000000000000e+02 3.100000000000000000e+01
5.930000000000000000e+02 3.100000000000000000e+01
7.040000000000000000e+02 3.100000000000000000e+01
7.050000000000000000e+02 3.100000000000000000e+01
7.060000000000000000e+02 3.100000000000000000e+01
7.070000000000000000e+02 3.100000000000000000e+01
7.080000000000000000e+02 3.100000000000000000e+01
7.090000000000000000e+02 3.100000000000000000e+01
8.210000000000000000e+02 3.100000000000000000e+01
8.220000000000000000e+02 3.100000000000000000e+01
8.230000000000000000e+02 3.100000000000000000e+01
8.240000000000000000e+02 3.100000000000000000e+01
8.250000000000000000e+02 3.100000000000000000e+01
8.260000000000000000e+02 3.100000000000000000e+01
9.500000000000000000e+02 3.100000000000000000e+01
9.510000000000000000e+02 3.100000000000000000e+01
9.520000000000000000e+02 3.100000000000000000e+01
9.530000000000000000e+02 3.100000000000000000e+01
9.540000000000000000e+02 3.100000000000000000e+01
9.550000000000000000e+02 3.100000000000000000e+01
1.680000000000000000e+02 3.200000000000000000e+01
1.690000000000000000e+02 3.200000000000000000e+01
1.700000000000000000e+02 3.200000000000000000e+01
1.710000000000000000e+02 3.200000000000000000e+01
1.720000000000000000e+02 3.200000000000000000e+01
1.730000000000000000e+02 3.200000000000000000e+01
3.190000000000000000e+02 3.200000000000000000e+01
3.200000000000000000e+02 3.200000000000000000e+01
3.210000000000000000e+02 3.200000000000000000e+01
3.220000000000000000e+02 3.200000000000000000e+01
3.230000000000000000e+02 3.200000000000000000e+01
3.240000000000000000e+02 3.200000000000000000e+01
4.580000000000000000e+02 3.200000000000000000e+01
4.590000000000000000e+02 3.200000000000000000e+01
4.600000000000000000e+02 3.200000000000000000e+01
4.610000000000000000e+02 3.200000000000000000e+01
4.620000000000000000e+02 3.200000000000000000e+01
4.630000000000000000e+02 3.200000000000000000e+01
5.880000000000000000e+02 3.200000000000000000e+01
5.890000000000000000e+02 3.200000000000000000e+01
5.900000000000000000e+02 3.200000000000000000e+01
5.910000000000000000e+02 3.200000000000000000e+01
5.920000000000000000e+02 3.200000000000000000e+01
5.930000000000000000e+02 3.200000000000000000e+01
7.040000000000000000e+02 3.200000000000000000e+01
7.050000000000000000e+02 3.200000000000000000e+01
7.060000000000000000e+02 3.200000000000000000e+01
7.070000000000000000e+02 3.200000000000000000e+01
7.080000000000000000e+02 3.200000000000000000e+01
7.090000000000000000e+02 3.200000000000000000e+01
8.210000000000000000e+02 3.200000000000000000e+01
8.220000000000000000e+02 3.200000000000000000e+01
8.230000000000000000e+02 3.200000000000000000e+01
8.240000000000000000e+02 3.200000000000000000e+01
8.250000000000000000e+02 3.200000000000000000e+01
8.260000000000000000e+02 3.200000000000000000e+01
9.500000000000000000e+02 3.200000000000000000e+01
9.510000000000000000e+02 3.200000000000000000e+01
9.520000000000000000e+02 3.200000000000000000e+01
9.530000000000000000e+02 3.200000000000000000e+01
9.540000000000000000e+02 3.200000000000000000e+01
9.550000000000000000e+02 3.200000000000000000e+01
1.680000000000000000e+02 3.300000000000000000e+01
1.690000000000000000e+02 3.300000000000000000e+01
1.700000000000000000e+02 3.300000000000000000e+01
1.710000000000000000e+02 3.300000000000000000e+01
1.720000000000000000e+02 3.300000000000000000e+01
1.730000000000000000e+02 3.300000000000000000e+01
3.190000000000000000e+02 3.300000000000000000e+01
3.200000000000000000e+02 3.300000000000000000e+01
3.210000000000000000e+02 3.300000000000000000e+01
3.220000000000000000e+02 3.300000000000000000e+01
3.230000000000000000e+02 3.300000000000000000e+01
3.240000000000000000e+02 3.300000000000000000e+01
4.580000000000000000e+02 3.300000000000000000e+01
4.590000000000000000e+02 3.300000000000000000e+01
4.600000000000000000e+02 3.300000000000000000e+01
4.610000000000000000e+02 3.300000000000000000e+01
4.620000000000000000e+02 3.300000000000000000e+01
4.630000000000000000e+02 3.300000000000000000e+01
5.880000000000000000e+02 3.300000000000000000e+01
5.890000000000000000e+02 3.300000000000000000e+01
5.900000000000000000e+02 3.300000000000000000e+01
5.910000000000000000e+02 3.300000000000000000e+01
5.920000000000000000e+02 3.300000000000000000e+01
5.930000000000000000e+02 3.300000000000000000e+01
7.040000000000000000e+02 3.300000000000000000e+01
7.050000000000000000e+02 3.300000000000000000e+01
7.060000000000000000e+02 3.300000000000000000e+01
7.070000000000000000e+02 3.300000000000000000e+01
7.080000000000000000e+02 3.300000000000000000e+01
7.090000000000000000e+02 3.300000000000000000e+01
8.210000000000000000e+02 3.300000000000000000e+01
8.220000000000000000e+02 3.300000000000000000e+01
8.230000000000000000e+02 3.300000000000000000e+01
8.240000000000000000e+02 3.300000000000000000e+01
8.250000000000000000e+02 3.300000000000000000e+01
8.260000000000000000e+02 3.300000000000000000e+01
9.500000000000000000e+02 3.300000000000000000e+01
9.510000000000000000e+02 3.300000000000000000e+01
9.520000000000000000e+02 3.300000000000000000e+01
9.530000000000000000e+02 3.300000000000000000e+01
9.540000000000000000e+02 3.300000000000000000e+01
9.550000000000000000e+02 3.300000000000000000e+01
1.680000000000000000e+02 3.400000000000000000e+01
1.690000000000000000e+02 3.400000000000000000e+01
1.700000000000000000e+02 3.400000000000000000e+01
1.710000000000000000e+02 3.400000000000000000e+01
1.720000000000000000e+02 3.400000000000000000e+01
1.730000000000000000e+02 3.400000000000000000e+01
3.180000000000000000e+02 3.400000000000000000e+01
3.190000000000000000e+02 3.400000000000000000e+01
3.200000000000000000e+02 3.400000000000000000e+01
3.210000000000000000e+02 3.400000000000000000e+01
3.220000000000000000e+02 3.400000000000000000e+01
3.230000000000000000e+02 3.400000000000000000e+01
3.240000000000000000e+02 3.400000000000000000e+01
4.580000000000000000e+02 3.400000000000000000e+01
4.590000000000000000e+02 3.400000000000000000e+01
4.600000000000000000e+02 3.400000000000000000e+01
4.610000000000000000e+02 3.400000000000000000e+01
4.620000000000000000e+02 3.400000000000000000e+01
4.630000000000000000e+02 3.400000000000000000e+01
5.880000000000000000e+02 3.400000000000000000e+01
5.890000000000000000e+02 3.400000000000000000e+01
5.900000000000000000e+02 3.400000000000000000e+01
5.910000000000000000e+02 3.400000000000000000e+01
5.920000000000000000e+02 3.400000000000000000e+01
5.930000000000000000e+02 3.400000000000000000e+01
7.040000000000000000e+02 3.400000000000000000e+01
7.050000000000000000e+02 3.400000000000000000e+01
7.060000000000000000e+02 3.400000000000000000e+01
7.070000000000000000e+02 3.400000000000000000e+01
7.080000000000000000e+02 3.400000000000000000e+01
7.090000000000000000e+02 3.400000000000000000e+01
8.210000000000000000e+02 3.400000000000000000e+01
8.220000000000000000e+02 3.400000000000000000e+01
8.230000000000000000e+02 3.400000000000000000e+01
8.240000000000000000e+02 3.400000000000000000e+01
8.250000000000000000e+02 3.400000000000000000e+01
8.260000000000000000e+02 3.400000000000000000e+01
9.500000000000000000e+02 3.400000000000000000e+01
9.510000000000000000e+02 3.400000000000000000e+01
9.520000000000000000e+02 3.400000000000000000e+01
9.530000000000000000e+02 3.400000000000000000e+01
9.540000000000000000e+02 3.400000000000000000e+01
9.550000000000000000e+02 3.400000000000000000e+01
1.680000000000000000e+02 3.500000000000000000e+01
1.690000000000000000e+02 3.500000000000000000e+01
1.700000000000000000e+02 3.500000000000000000e+01
1.710000000000000000e+02 3.500000000000000000e+01
1.720000000000000000e+02 3.500000000000000000e+01
1.730000000000000000e+02 3.500000000000000000e+01
3.180000000000000000e+02 3.500000000000000000e+01
3.190000000000000000e+02 3.500000000000000000e+01
3.200000000000000000e+02 3.500000000000000000e+01
3.210000000000000000e+02 3.500000000000000000e+01
3.220000000000000000e+02 3.500000000000000000e+01
3.230000000000000000e+02 3.500000000000000000e+01
3.240000000000000000e+02 3.500000000000000000e+01
4.580000000000000000e+02 3.500000000000000000e+01
4.590000000000000000e+02 3.500000000000000000e+01
4.600000000000000000e+02 3.500000000000000000e+01
4.610000000000000000e+02 3.500000000000000000e+01
4.620000000000000000e+02 3.500000000000000000e+01
4.630000000000000000e+02 3.500000000000000000e+01
5.880000000000000000e+02 3.500000000000000000e+01
5.890000000000000000e+02 3.500000000000000000e+01
5.900000000000000000e+02 3.500000000000000000e+01
5.910000000000000000e+02 3.500000000000000000e+01
5.920000000000000000e+02 3.500000000000000000e+01
5.930000000000000000e+02 3.500000000000000000e+01
7.040000000000000000e+02 3.500000000000000000e+01
7.050000000000000000e+02 3.500000000000000000e+01
7.060000000000000000e+02 3.500000000000000000e+01
7.070000000000000000e+02 3.500000000000000000e+01
7.080000000000000000e+02 3.500000000000000000e+01
7.090000000000000000e+02 3.500000000000000000e+01
8.210000000000000000e+02 3.500000000000000000e+01
8.220000000000000000e+02 3.500000000000000000e+01
8.230000000000000000e+02 3.500000000000000000e+01
8.240000000000000000e+02 3.500000000000000000e+01
8.250000000000000000e+02 3.500000000000000000e+01
8.260000000000000000e+02 3.500000000000000000e+01
9.500000000000000000e+02 3.500000000000000000e+01
9.510000000000000000e+02 3.500000000000000000e+01
9.520000000000000000e+02 3.500000000000000000e+01
9.530000000000000000e+02 3.500000000000000000e+01
9.540000000000000000e+02 3.500000000000000000e+01
9.550000000000000000e+02 3.500000000000000000e+01
1.680000000000000000e+02 3.600000000000000000e+01
1.690000000000000000e+02 3.600000000000000000e+01
1.700000000000000000e+02 3.600000000000000000e+01
1.710000000000000000e+02 3.600000000000000000e+01
1.720000000000000000e+02 3.600000000000000000e+01
1.730000000000000000e+02 3.600000000000000000e+01
3.180000000000000000e+02 3.600000000000000000e+01
3.190000000000000000e+02 3.600000000000000000e+01
3.200000000000000000e+02 3.600000000000000000e+01
3.210000000000000000e+02 3.600000000000000000e+01
3.220000000000000000e+02 3.600000000000000000e+01
3.230000000000000000e+02 3.600000000000000000e+01
3.240000000000000000e+02 3.600000000000000000e+01
4.580000000000000000e+02 3.600000000000000000e+01
4.590000000000000000e+02 3.600000000000000000e+01
4.600000000000000000e+02 3.600000000000000000e+01
4.610000000000000000e+02 3.600000000000000000e+01
4.620000000000000000e+02 3.600000000000000000e+01
4.630000000000000000e+02 3.600000000000000000e+01
5.880000000000000000e+02 3.600000000000000000e+01
5.890000000000000000e+02 3.600000000000000000e+01
5.900000000000000000e+02 3.600000000000000000e+01
5.910000000000000000e+02 3.600000000000000000e+01
5.920000000000000000e+02 3.600000000000000000e+01
5.930000000000000000e+02 3.600000000000000000e+01
7.040000000000000000e+02 3.600000000000000000e+01
7.050000000000000000e+02 3.600000000000000000e+01
7.060000000000000000e+02 3.600000000000000000e+01
7.070000000000000000e+02 3.600000000000000000e+01
7.080000000000000000e+02 3.600000000000000000e+01
7.090000000000000000e+02 3.600000000000000000e+01
8.210000000000000000e+02 3.600000000000000000e+01
8.220000000000000000e+02 3.600000000000000000e+01
8.230000000000000000e+02 3.600000000000000000e+01
8.240000000000000000e+02 3.600000000000000000e+01
8.250000000000000000e+02 3.600000000000000000e+01
8.260000000000000000e+02 3.600000000000000000e+01
9.500000000000000000e+02 3.600000000000000000e+01
9.510000000000000000e+02 3.600000000000000000e+01
9.520000000000000000e+02 3.600000000000000000e+01
9.530000000000000000e+02 3.600000000000000000e+01
9.540000000000000000e+02 3.600000000000000000e+01
9.550000000000000000e+02 3.600000000000000000e+01
1.680000000000000000e+02 3.700000000000000000e+01
1.690000000000000000e+02 3.700000000000000000e+01
1.700000000000000000e+02 3.700000000000000000e+01
1.710000000000000000e+02 3.700000000000000000e+01
1.720000000000000000e+02 3.700000000000000000e+01
1.730000000000000000e+02 3.700000000000000000e+01
3.180000000000000000e+02 3.700000000000000000e+01
3.190000000000000000e+02 3.700000000000000000e+01
3.200000000000000000e+02 3.700000000000000000e+01
3.210000000000000000e+02 3.700000000000000000e+01
3.220000000000000000e+02 3.700000000000000000e+01
3.230000000000000000e+02 3.700000000000000000e+01
3.240000000000000000e+02 3.700000000000000000e+01
4.580000000000000000e+02 3.700000000000000000e+01
4.590000000000000000e+02 3.700000000000000000e+01
4.600000000000000000e+02 3.700000000000000000e+01
4.610000000000000000e+02 3.700000000000000000e+01
4.620000000000000000e+02 3.700000000000000000e+01
4.630000000000000000e+02 3.700000000000000000e+01
5.880000000000000000e+02 3.700000000000000000e+01
5.890000000000000000e+02 3.700000000000000000e+01
5.900000000000000000e+02 3.700000000000000000e+01
5.910000000000000000e+02 3.700000000000000000e+01
5.920000000000000000e+02 3.700000000000000000e+01
5.930000000000000000e+02 3.700000000000000000e+01
7.040000000000000000e+02 3.700000000000000000e+01
7.050000000000000000e+02 3.700000000000000000e+01
7.060000000000000000e+02 3.700000000000000000e+01
7.070000000000000000e+02 3.700000000000000000e+01
7.080000000000000000e+02 3.700000000000000000e+01
7.090000000000000000e+02 3.700000000000000000e+01
8.210000000000000000e+02 3.700000000000000000e+01
8.220000000000000000e+02 3.700000000000000000e+01
8.230000000000000000e+02 3.700000000000000000e+01
8.240000000000000000e+02 3.700000000000000000e+01
8.250000000000000000e+02 3.700000000000000000e+01
8.260000000000000000e+02 3.700000000000000000e+01
9.500000000000000000e+02 3.700000000000000000e+01
9.510000000000000000e+02 3.700000000000000000e+01
9.520000000000000000e+02 3.700000000000000000e+01
9.530000000000000000e+02 3.700000000000000000e+01
9.540000000000000000e+02 3.700000000000000000e+01
9.550000000000000000e+02 3.700000000000000000e+01
1.680000000000000000e+02 3.800000000000000000e+01
1.690000000000000000e+02 3.800000000000000000e+01
1.700000000000000000e+02 3.800000000000000000e+01
1.710000000000000000e+02 3.800000000000000000e+01
1.720000000000000000e+02 3.800000000000000000e+01
1.730000000000000000e+02 3.800000000000000000e+01
3.180000000000000000e+02 3.800000000000000000e+01
3.190000000000000000e+02 3.800000000000000000e+01
3.200000000000000000e+02 3.800000000000000000e+01
3.210000000000000000e+02 3.800000000000000000e+01
3.220000000000000000e+02 3.800000000000000000e+01
3.230000000000000000e+02 3.800000000000000000e+01
3.240000000000000000e+02 3.800000000000000000e+01
4.580000000000000000e+02 3.800000000000000000e+01
4.590000000000000000e+02 3.800000000000000000e+01
4.600000000000000000e+02 3.800000000000000000e+01
4.610000000000000000e+02 3.800000000000000000e+01
4.620000000000000000e+02 3.800000000000000000e+01
4.630000000000000000e+02 3.800000000000000000e+01
5.880000000000000000e+02 3.800000000000000000e+01
5.890000000000000000e+02 3.800000000000000000e+01
5.900000000000000000e+02 3.800000000000000000e+01
5.910000000000000000e+02 3.800000000000000000e+01
5.920000000000000000e+02 3.800000000000000000e+01
5.930000000000000000e+02 3.800000000000000000e+01
7.040000000000000000e+02 3.800000000000000000e+01
7.050000000000000000e+02 3.800000000000000000e+01
7.060000000000000000e+02 3.800000000000000000e+01
7.070000000000000000e+02 3.800000000000000000e+01
7.080000000000000000e+02 3.800000000000000000e+01
7.090000000000000000e+02 3.800000000000000000e+01
8.210000000000000000e+02 3.800000000000000000e+01
8.220000000000000000e+02 3.800000000000000000e+01
8.230000000000000000e+02 3.800000000000000000e+01
8.240000000000000000e+02 3.800000000000000000e+01
8.250000000000000000e+02 3.800000000000000000e+01
8.260000000000000000e+02 3.800000000000000000e+01
9.500000000000000000e+02 3.800000000000000000e+01
9.510000000000000000e+02 3.800000000000000000e+01
9.520000000000000000e+02 3.800000000000000000e+01
9.530000000000000000e+02 3.800000000000000000e+01
9.540000000000000000e+02 3.800000000000000000e+01
9.550000000000000000e+02 3.800000000000000000e+01
1.680000000000000000e+02 3.900000000000000000e+01
1.690000000000000000e+02 3.900000000000000000e+01
1.700000000000000000e+02 3.900000000000000000e+01
1.710000000000000000e+02 3.900000000000000000e+01
1.720000000000000000e+02 3.900000000000000000e+01
1.730000000000000000e+02 3.900000000000000000e+01
3.180000000000000000e+02 3.900000000000000000e+01
3.190000000000000000e+02 3.900000000000000000e+01
3.200000000000000000e+02 3.900000000000000000e+01
3.210000000000000000e+02 3.900000000000000000e+01
3.220000000000000000e+02 3.900000000000000000e+01
3.230000000000000000e+02 3.900000000000000000e+01
3.240000000000000000e+02 3.900000000000000000e+01
4.580000000000000000e+02 3.900000000000000000e+01
4.590000000000000000e+02 3.900000000000000000e+01
4.600000000000000000e+02 3.900000000000000000e+01
4.610000000000000000e+02 3.900000000000000000e+01
4.620000000000000000e+02 3.900000000000000000e+01
4.630000000000000000e+02 3.900000000000000000e+01
5.880000000000000000e+02 3.900000000000000000e+01
5.890000000000000000e+02 3.900000000000000000e+01
5.900000000000000000e+02 3.900000000000000000e+01
5.910000000000000000e+02 3.900000000000000000e+01
5.920000000000000000e+02 3.900000000000000000e+01
5.930000000000000000e+02 3.900000000000000000e+01
7.040000000000000000e+02 3.900000000000000000e+01
7.050000000000000000e+02 3.900000000000000000e+01
7.060000000000000000e+02 3.900000000000000000e+01
7.070000000000000000e+02 3.900000000000000000e+01
7.080000000000000000e+02 3.900000000000000000e+01
7.090000000000000000e+02 3.900000000000000000e+01
8.210000000000000000e+02 3.900000000000000000e+01
8.220000000000000000e+02 3.900000000000000000e+01
8.230000000000000000e+02 3.900000000000000000e+01
8.240000000000000000e+02 3.900000000000000000e+01
8.250000000000000000e+02 3.900000000000000000e+01
8.260000000000000000e+02 3.900000000000000000e+01
9.500000000000000000e+02 3.900000000000000000e+01
9.510000000000000000e+02 3.900000000000000000e+01
9.520000000000000000e+02 3.900000000000000000e+01
9.530000000000000000e+02 3.900000000000000000e+01
9.540000000000000000e+02 3.900000000000000000e+01
9.550000000000000000e+02 3.900000000000000000e+01
1.680000000000000000e+02 4.000000000000000000e+01
1.690000000000000000e+02 4.000000000000000000e+01
1.700000000000000000e+02 4.000000000000000000e+01
1.710000000000000000e+02 4.000000000000000000e+01
1.720000000000000000e+02 4.000000000000000000e+01
1.730000000000000000e+02 4.000000000000000000e+01
3.180000000000000000e+02 4.000000000000000000e+01
3.190000000000000000e+02 4.000000000000000000e+01
3.200000000000000000e+02 4.000000000000000000e+01
3.210000000000000000e+02 4.000000000000000000e+01
3.220000000000000000e+02 4.000000000000000000e+01
3.230000000000000000e+02 4.000000000000000000e+01
3.240000000000000000e+02 4.000000000000000000e+01
4.580000000000000000e+02 4.000000000000000000e+01
4.590000000000000000e+02 4.000000000000000000e+01
4.600000000000000000e+02 4.000000000000000000e+01
4.610000000000000000e+02 4.000000000000000000e+01
4.620000000000000000e+02 4.000000000000000000e+01
4.630000000000000000e+02 4.000000000000000000e+01
5.880000000000000000e+02 4.000000000000000000e+01
5.890000000000000000e+02 4.000000000000000000e+01
5.900000000000000000e+02 4.000000000000000000e+01
5.910000000000000000e+02 4.000000000000000000e+01
5.920000000000000000e+02 4.000000000000000000e+01
5.930000000000000000e+02 4.000000000000000000e+01
7.040000000000000000e+02 4.000000000000000000e+01
7.050000000000000000e+02 4.000000000000000000e+01
7.060000000000000000e+02 4.000000000000000000e+01
7.070000000000000000e+02 4.000000000000000000e+01
7.080000000000000000e+02 4.000000000000000000e+01
7.090000000000000000e+02 4.000000000000000000e+01
8.210000000000000000e+02 4.000000000000000000e+01
8.220000000000000000e+02 4.000000000000000000e+01
8.230000000000000000e+02 4.000000000000000000e+01
8.240000000000000000e+02 4.000000000000000000e+01
8.250000000000000000e+02 4.000000000000000000e+01
8.260000000000000000e+02 4.000000000000000000e+01
9.500000000000000000e+02 4.000000000000000000e+01
9.510000000000000000e+02 4.000000000000000000e+01
9.520000000000000000e+02 4.000000000000000000e+01
9.530000000000000000e+02 4.000000000000000000e+01
9.540000000000000000e+02 4.000000000000000000e+01
9.550000000000000000e+02 4.000000000000000000e+01
1.680000000000000000e+02 4.100000000000000000e+01
1.690000000000000000e+02 4.100000000000000000e+01
1.700000000000000000e+02 4.100000000000000000e+01
1.710000000000000000e+02 4.100000000000000000e+01
1.720000000000000000e+02 4.100000000000000000e+01
1.730000000000000000e+02 4.100000000000000000e+01
3.180000000000000000e+02 4.100000000000000000e+01
3.190000000000000000e+02 4.100000000000000000e+01
3.200000000000000000e+02 4.100000000000000000e+01
3.210000000000000000e+02 4.100000000000000000e+01
3.220000000000000000e+02 4.100000000000000000e+01
3.230000000000000000e+02 4.100000000000000000e+01
3.240000000000000000e+02 4.100000000000000000e+01
4.580000000000000000e+02 4.100000000000000000e+01
4.590000000000000000e+02 4.100000000000000000e+01
4.600000000000000000e+02 4.100000000000000000e+01
4.610000000000000000e+02 4.100000000000000000e+01
4.620000000000000000e+02 4.100000000000000000e+01
4.630000000000000000e+02 4.100000000000000000e+01
5.880000000000000000e+02 4.100000000000000000e+01
5.890000000000000000e+02 4.100000000000000000e+01
5.900000000000000000e+02 4.100000000000000000e+01
5.910000000000000000e+02 4.100000000000000000e+01
5.920000000000000000e+02 4.100000000000000000e+01
5.930000000000000000e+02 4.100000000000000000e+01
7.040000000000000000e+02 4.100000000000000000e+01
7.050000000000000000e+02 4.100000000000000000e+01
7.060000000000000000e+02 4.100000000000000000e+01
7.070000000000000000e+02 4.100000000000000000e+01
7.080000000000000000e+02 4.100000000000000000e+01
7.090000000000000000e+02 4.100000000000000000e+01
8.210000000000000000e+02 4.100000000000000000e+01
8.220000000000000000e+02 4.100000000000000000e+01
8.230000000000000000e+02 4.100000000000000000e+01
8.240000000000000000e+02 4.100000000000000000e+01
8.250000000000000000e+02 4.100000000000000000e+01
8.260000000000000000e+02 4.100000000000000000e+01
9.500000000000000000e+02 4.100000000000000000e+01
9.510000000000000000e+02 4.100000000000000000e+01
9.520000000000000000e+02 4.100000000000000000e+01
9.530000000000000000e+02 4.100000000000000000e+01
9.540000000000000000e+02 4.100000000000000000e+01
9.550000000000000000e+02 4.100000000000000000e+01
1.680000000000000000e+02 4.200000000000000000e+01
1.690000000000000000e+02 4.200000000000000000e+01
1.700000000000000000e+02 4.200000000000000000e+01
1.710000000000000000e+02 4.200000000000000000e+01
1.720000000000000000e+02 4.200000000000000000e+01
1.730000000000000000e+02 4.200000000000000000e+01
3.180000000000000000e+02 4.200000000000000000e+01
3.190000000000000000e+02 4.200000000000000000e+01
3.200000000000000000e+02 4.200000000000000000e+01
3.210000000000000000e+02 4.200000000000000000e+01
3.220000000000000000e+02 4.200000000000000000e+01
3.230000000000000000e+02 4.200000000000000000e+01
3.240000000000000000e+02 4.200000000000000000e+01
4.580000000000000000e+02 4.200000000000000000e+01
4.590000000000000000e+02 4.200000000000000000e+01
4.600000000000000000e+02 4.200000000000000000e+01
4.610000000000000000e+02 4.200000000000000000e+01
4.620000000000000000e+02 4.200000000000000000e+01
4.630000000000000000e+02 4.200000000000000000e+01
5.880000000000000000e+02 4.200000000000000000e+01
5.890000000000000000e+02 4.200000000000000000e+01
5.900000000000000000e+02 4.200000000000000000e+01
5.910000000000000000e+02 4.200000000000000000e+01
5.920000000000000000e+02 4.200000000000000000e+01
5.930000000000000000e+02 4.200000000000000000e+01
7.040000000000000000e+02 4.200000000000000000e+01
7.050000000000000000e+02 4.200000000000000000e+01
7.060000000000000000e+02 4.200000000000000000e+01
7.070000000000000000e+02 4.200000000000000000e+01
7.080000000000000000e+02 4.200000000000000000e+01
7.090000000000000000e+02 4.200000000000000000e+01
8.210000000000000000e+02 4.200000000000000000e+01
8.220000000000000000e+02 4.200000000000000000e+01
8.230000000000000000e+02 4.200000000000000000e+01
8.240000000000000000e+02 4.200000000000000000e+01
8.250000000000000000e+02 4.200000000000000000e+01
8.260000000000000000e+02 4.200000000000000000e+01
9.500000000000000000e+02 4.200000000000000000e+01
9.510000000000000000e+02 4.200000000000000000e+01
9.520000000000000000e+02 4.200000000000000000e+01
9.530000000000000000e+02 4.200000000000000000e+01
9.540000000000000000e+02 4.200000000000000000e+01
9.550000000000000000e+02 4.200000000000000000e+01
1.680000000000000000e+02 4.300000000000000000e+01
1.690000000000000000e+02 4.300000000000000000e+01
1.700000000000000000e+02 4.300000000000000000e+01
1.710000000000000000e+02 4.300000000000000000e+01
1.720000000000000000e+02 4.300000000000000000e+01
1.730000000000000000e+02 4.300000000000000000e+01
3.180000000000000000e+02 4.300000000000000000e+01
3.190000000000000000e+02 4.300000000000000000e+01
3.200000000000000000e+02 4.300000000000000000e+01
3.210000000000000000e+02 4.300000000000000000e+01
3.220000000000000000e+02 4.300000000000000000e+01
3.230000000000000000e+02 4.300000000000000000e+01
3.240000000000000000e+02 4.300000000000000000e+01
4.580000000000000000e+02 4.300000000000000000e+01
4.590000000000000000e+02 4.300000000000000000e+01
4.600000000000000000e+02 4.300000000000000000e+01
4.610000000000000000e+02 4.300000000000000000e+01
4.620000000000000000e+02 4.300000000000000000e+01
4.630000000000000000e+02 4.300000000000000000e+01
5.880000000000000000e+02 4.300000000000000000e+01
5.890000000000000000e+02 4.300000000000000000e+01
5.900000000000000000e+02 4.300000000000000000e+01
5.910000000000000000e+02 4.300000000000000000e+01
5.920000000000000000e+02 4.300000000000000000e+01
5.930000000000000000e+02 4.300000000000000000e+01
7.040000000000000000e+02 4.300000000000000000e+01
7.050000000000000000e+02 4.300000000000000000e+01
7.060000000000000000e+02 4.300000000000000000e+01
7.070000000000000000e+02 4.300000000000000000e+01
7.080000000000000000e+02 4.300000000000000000e+01
7.090000000000000000e+02 4.300000000000000000e+01
8.210000000000000000e+02 4.300000000000000000e+01
8.220000000000000000e+02 4.300000000000000000e+01
8.230000000000000000e+02 4.300000000000000000e+01
8.240000000000000000e+02 4.300000000000000000e+01
8.250000000000000000e+02 4.300000000000000000e+01
8.260000000000000000e+02 4.300000000000000000e+01
9.500000000000000000e+02 4.300000000000000000e+01
9.510000000000000000e+02 4.300000000000000000e+01
9.520000000000000000e+02 4.300000000000000000e+01
9.530000000000000000e+02 4.300000000000000000e+01
9.540000000000000000e+02 4.300000000000000000e+01
9.550000000000000000e+02 4.300000000000000000e+01
1.680000000000000000e+02 4.400000000000000000e+01
1.690000000000000000e+02 4.400000000000000000e+01
1.700000000000000000e+02 4.400000000000000000e+01
1.710000000000000000e+02 4.400000000000000000e+01
1.720000000000000000e+02 4.400000000000000000e+01
1.730000000000000000e+02 4.400000000000000000e+01
3.180000000000000000e+02 4.400000000000000000e+01
3.190000000000000000e+02 4.400000000000000000e+01
3.200000000000000000e+02 4.400000000000000000e+01
3.210000000000000000e+02 4.400000000000000000e+01
3.220000000000000000e+02 4.400000000000000000e+01
3.230000000000000000e+02 4.400000000000000000e+01
3.240000000000000000e+02 4.400000000000000000e+01
4.580000000000000000e+02 4.400000000000000000e+01
4.590000000000000000e+02 4.400000000000000000e+01
4.600000000000000000e+02 4.400000000000000000e+01
4.610000000000000000e+02 4.400000000000000000e+01
4.620000000000000000e+02 4.400000000000000000e+01
4.630000000000000000e+02 4.400000000000000000e+01
5.880000000000000000e+02 4.400000000000000000e+01
5.890000000000000000e+02 4.400000000000000000e+01
5.900000000000000000e+02 4.400000000000000000e+01
5.910000000000000000e+02 4.400000000000000000e+01
5.920000000000000000e+02 4.400000000000000000e+01
5.930000000000000000e+02 4.400000000000000000e+01
7.040000000000000000e+02 4.400000000000000000e+01
7.050000000000000000e+02 4.400000000000000000e+01
7.060000000000000000e+02 4.400000000000000000e+01
7.070000000000000000e+02 4.400000000000000000e+01
7.080000000000000000e+02 4.400000000000000000e+01
7.090000000000000000e+02 4.400000000000000000e+01
8.210000000000000000e+02 4.400000000000000000e+01
8.220000000000000000e+02 4.400000000000000000e+01
8.230000000000000000e+02 4.400000000000000000e+01
8.240000000000000000e+02 4.400000000000000000e+01
8.250000000000000000e+02 4.400000000000000000e+01
8.260000000000000000e+02 4.400000000000000000e+01
9.500000000000000000e+02 4.400000000000000000e+01
9.510000000000000000e+02 4.400000000000000000e+01
9.520000000000000000e+02 4.400000000000000000e+01
9.530000000000000000e+02 4.400000000000000000e+01
9.540000000000000000e+02 4.400000000000000000e+01
9.550000000000000000e+02 4.400000000000000000e+01
1.680000000000000000e+02 4.500000000000000000e+01
1.690000000000000000e+02 4.500000000000000000e+01
1.700000000000000000e+02 4.500000000000000000e+01
1.710000000000000000e+02 4.500000000000000000e+01
1.720000000000000000e+02 4.500000000000000000e+01
1.730000000000000000e+02 4.500000000000000000e+01
3.180000000000000000e+02 4.500000000000000000e+01
3.190000000000000000e+02 4.500000000000000000e+01
3.200000000000000000e+02 4.500000000000000000e+01
3.210000000000000000e+02 4.500000000000000000e+01
3.220000000000000000e+02 4.500000000000000000e+01
3.230000000000000000e+02 4.500000000000000000e+01
3.240000000000000000e+02 4.500000000000000000e+01
4.580000000000000000e+02 4.500000000000000000e+01
4.590000000000000000e+02 4.500000000000000000e+01
4.600000000000000000e+02 4.500000000000000000e+01
4.610000000000000000e+02 4.500000000000000000e+01
4.620000000000000000e+02 4.500000000000000000e+01
4.630000000000000000e+02 4.500000000000000000e+01
5.880000000000000000e+02 4.500000000000000000e+01
5.890000000000000000e+02 4.500000000000000000e+01
5.900000000000000000e+02 4.500000000000000000e+01
5.910000000000000000e+02 4.500000000000000000e+01
5.920000000000000000e+02 4.500000000000000000e+01
5.930000000000000000e+02 4.500000000000000000e+01
7.040000000000000000e+02 4.500000000000000000e+01
7.050000000000000000e+02 4.500000000000000000e+01
7.060000000000000000e+02 4.500000000000000000e+01
7.070000000000000000e+02 4.500000000000000000e+01
7.080000000000000000e+02 4.500000000000000000e+01
7.090000000000000000e+02 4.500000000000000000e+01
8.210000000000000000e+02 4.500000000000000000e+01
8.220000000000000000e+02 4.500000000000000000e+01
8.230000000000000000e+02 4.500000000000000000e+01
8.240000000000000000e+02 4.500000000000000000e+01
8.250000000000000000e+02 4.500000000000000000e+01
8.260000000000000000e+02 4.500000000000000000e+01
8.270000000000000000e+02 4.500000000000000000e+01
9.500000000000000000e+02 4.500000000000000000e+01
9.510000000000000000e+02 4.500000000000000000e+01
9.520000000000000000e+02 4.500000000000000000e+01
9.530000000000000000e+02 4.500000000000000000e+01
9.540000000000000000e+02 4.500000000000000000e+01
9.550000000000000000e+02 4.500000000000000000e+01
1.680000000000000000e+02 4.600000000000000000e+01
1.690000000000000000e+02 4.600000000000000000e+01
1.700000000000000000e+02 4.600000000000000000e+01
1.710000000000000000e+02 4.600000000000000000e+01
1.720000000000000000e+02 4.600000000000000000e+01
1.730000000000000000e+02 4.600000000000000000e+01
3.180000000000000000e+02 4.600000000000000000e+01
3.190000000000000000e+02 4.600000000000000000e+01
3.200000000000000000e+02 4.600000000000000000e+01
3.210000000000000000e+02 4.600000000000000000e+01
3.220000000000000000e+02 4.600000000000000000e+01
3.230000000000000000e+02 4.600000000000000000e+01
3.240000000000000000e+02 4.600000000000000000e+01
4.580000000000000000e+02 4.600000000000000000e+01
4.590000000000000000e+02 4.600000000000000000e+01
4.600000000000000000e+02 4.600000000000000000e+01
4.610000000000000000e+02 4.600000000000000000e+01
4.620000000000000000e+02 4.600000000000000000e+01
4.630000000000000000e+02 4.600000000000000000e+01
5.880000000000000000e+02 4.600000000000000000e+01
5.890000000000000000e+02 4.600000000000000000e+01
5.900000000000000000e+02 4.600000000000000000e+01
5.910000000000000000e+02 4.600000000000000000e+01
5.920000000000000000e+02 4.600000000000000000e+01
5.930000000000000000e+02 4.600000000000000000e+01
7.040000000000000000e+02 4.600000000000000000e+01
7.050000000000000000e+02 4.600000000000000000e+01
7.060000000000000000e+02 4.600000000000000000e+01
7.070000000000000000e+02 4.600000000000000000e+01
7.080000000000000000e+02 4.600000000000000000e+01
7.090000000000000000e+02 4.600000000000000000e+01
8.210000000000000000e+02 4.600000000000000000e+01
8.220000000000000000e+02 4.600000000000000000e+01
8.230000000000000000e+02 4.600000000000000000e+01
8.240000000000000000e+02 4.600000000000000000e+01
8.250000000000000000e+02 4.600000000000000000e+01
8.260000000000000000e+02 4.600000000000000000e+01
8.270000000000000000e+02 4.600000000000000000e+01
9.500000000000000000e+02 4.600000000000000000e+01
9.510000000000000000e+02 4.600000000000000000e+01
9.520000000000000000e+02 4.600000000000000000e+01
9.530000000000000000e+02 4.600000000000000000e+01
9.540000000000000000e+02 4.600000000000000000e+01
9.550000000000000000e+02 4.600000000000000000e+01
1.680000000000000000e+02 4.700000000000000000e+01
1.690000000000000000e+02 4.700000000000000000e+01
1.700000000000000000e+02 4.700000000000000000e+01
1.710000000000000000e+02 4.700000000000000000e+01
1.720000000000000000e+02 4.700000000000000000e+01
1.730000000000000000e+02 4.700000000000000000e+01
3.180000000000000000e+02 4.700000000000000000e+01
3.190000000000000000e+02 4.700000000000000000e+01
3.200000000000000000e+02 4.700000000000000000e+01
3.210000000000000000e+02 4.700000000000000000e+01
3.220000000000000000e+02 4.700000000000000000e+01
3.230000000000000000e+02 4.700000000000000000e+01
3.240000000000000000e+02 4.700000000000000000e+01
4.580000000000000000e+02 4.700000000000000000e+01
4.590000000000000000e+02 4.700000000000000000e+01
4.600000000000000000e+02 4.700000000000000000e+01
4.610000000000000000e+02 4.700000000000000000e+01
4.620000000000000000e+02 4.700000000000000000e+01
4.630000000000000000e+02 4.700000000000000000e+01
5.880000000000000000e+02 4.700000000000000000e+01
5.890000000000000000e+02 4.700000000000000000e+01
5.900000000000000000e+02 4.700000000000000000e+01
5.910000000000000000e+02 4.700000000000000000e+01
5.920000000000000000e+02 4.700000000000000000e+01
5.930000000000000000e+02 4.700000000000000000e+01
7.040000000000000000e+02 4.700000000000000000e+01
7.050000000000000000e+02 4.700000000000000000e+01
7.060000000000000000e+02 4.700000000000000000e+01
7.070000000000000000e+02 4.700000000000000000e+01
7.080000000000000000e+02 4.700000000000000000e+01
7.090000000000000000e+02 4.700000000000000000e+01
8.210000000000000000e+02 4.700000000000000000e+01
8.220000000000000000e+02 4.700000000000000000e+01
8.230000000000000000e+02 4.700000000000000000e+01
8.240000000000000000e+02 4.700000000000000000e+01
8.250000000000000000e+02 4.700000000000000000e+01
8.260000000000000000e+02 4.700000000000000000e+01
8.270000000000000000e+02 4.700000000000000000e+01
9.500000000000000000e+02 4.700000000000000000e+01
9.510000000000000000e+02 4.700000000000000000e+01
9.520000000000000000e+02 4.700000000000000000e+01
9.530000000000000000e+02 4.700000000000000000e+01
9.540000000000000000e+02 4.700000000000000000e+01
9.550000000000000000e+02 4.700000000000000000e+01
1.680000000000000000e+02 4.800000000000000000e+01
1.690000000000000000e+02 4.800000000000000000e+01
1.700000000000000000e+02 4.800000000000000000e+01
1.710000000000000000e+02 4.800000000000000000e+01
1.720000000000000000e+02 4.800000000000000000e+01
1.730000000000000000e+02 4.800000000000000000e+01
3.180000000000000000e+02 4.800000000000000000e+01
3.190000000000000000e+02 4.800000000000000000e+01
3.200000000000000000e+02 4.800000000000000000e+01
3.210000000000000000e+02 4.800000000000000000e+01
3.220000000000000000e+02 4.800000000000000000e+01
3.230000000000000000e+02 4.800000000000000000e+01
3.240000000000000000e+02 4.800000000000000000e+01
4.580000000000000000e+02 4.800000000000000000e+01
4.590000000000000000e+02 4.800000000000000000e+01
4.600000000000000000e+02 4.800000000000000000e+01
4.610000000000000000e+02 4.800000000000000000e+01
4.620000000000000000e+02 4.800000000000000000e+01
4.630000000000000000e+02 4.800000000000000000e+01
5.880000000000000000e+02 4.800000000000000000e+01
5.890000000000000000e+02 4.800000000000000000e+01
5.900000000000000000e+02 4.800000000000000000e+01
5.910000000000000000e+02 4.800000000000000000e+01
5.920000000000000000e+02 4.800000000000000000e+01
5.930000000000000000e+02 4.800000000000000000e+01
7.040000000000000000e+02 4.800000000000000000e+01
7.050000000000000000e+02 4.800000000000000000e+01
7.060000000000000000e+02 4.800000000000000000e+01
7.070000000000000000e+02 4.800000000000000000e+01
7.080000000000000000e+02 4.800000000000000000e+01
7.090000000000000000e+02 4.800000000000000000e+01
8.210000000000000000e+02 4.800000000000000000e+01
8.220000000000000000e+02 4.800000000000000000e+01
8.230000000000000000e+02 4.800000000000000000e+01
8.240000000000000000e+02 4.800000000000000000e+01
8.250000000000000000e+02 4.800000000000000000e+01
8.260000000000000000e+02 4.800000000000000000e+01
8.270000000000000000e+02 4.800000000000000000e+01
9.500000000000000000e+02 4.800000000000000000e+01
9.510000000000000000e+02 4.800000000000000000e+01
9.520000000000000000e+02 4.800000000000000000e+01
9.530000000000000000e+02 4.800000000000000000e+01
9.540000000000000000e+02 4.800000000000000000e+01
9.550000000000000000e+02 4.800000000000000000e+01
1.680000000000000000e+02 4.900000000000000000e+01
1.690000000000000000e+02 4.900000000000000000e+01
1.700000000000000000e+02 4.900000000000000000e+01
1.710000000000000000e+02 4.900000000000000000e+01
1.720000000000000000e+02 4.900000000000000000e+01
1.730000000000000000e+02 4.900000000000000000e+01
3.180000000000000000e+02 4.900000000000000000e+01
3.190000000000000000e+02 4.900000000000000000e+01
3.200000000000000000e+02 4.900000000000000000e+01
3.210000000000000000e+02 4.900000000000000000e+01
3.220000000000000000e+02 4.900000000000000000e+01
3.230000000000000000e+02 4.900000000000000000e+01
3.240000000000000000e+02 4.900000000000000000e+01
4.580000000000000000e+02 4.900000000000000000e+01
4.590000000000000000e+02 4.900000000000000000e+01
4.600000000000000000e+02 4.900000000000000000e+01
4.610000000000000000e+02 4.900000000000000000e+01
4.620000000000000000e+02 4.900000000000000000e+01
4.630000000000000000e+02 4.900000000000000000e+01
5.870000000000000000e+02 4.900000000000000000e+01
5.880000000000000000e+02 4.900000000000000000e+01
5.890000000000000000e+02 4.900000000000000000e+01
5.900000000000000000e+02 4.900000000000000000e+01
5.910000000000000000e+02 4.900000000000000000e+01
5.920000000000000000e+02 4.900000000000000000e+01
5.930000000000000000e+02 4.900000000000000000e+01
7.040000000000000000e+02 4.900000000000000000e+01
7.050000000000000000e+02 4.900000000000000000e+01
7.060000000000000000e+02 4.900000000000000000e+01
7.070000000000000000e+02 4.900000000000000000e+01
7.080000000000000000e+02 4.900000000000000000e+01
7.090000000000000000e+02 4.900000000000000000e+01
8.210000000000000000e+02 4.900000000000000000e+01
8.220000000000000000e+02 4.900000000000000000e+01
8.230000000000000000e+02 4.900000000000000000e+01
8.240000000000000000e+02 4.900000000000000000e+01
8.250000000000000000e+02 4.900000000000000000e+01
8.260000000000000000e+02 4.900000000000000000e+01
8.270000000000000000e+02 4.900000000000000000e+01
9.500000000000000000e+02 4.900000000000000000e+01
9.510000000000000000e+02 4.900000000000000000e+01
9.520000000000000000e+02 4.900000000000000000e+01
9.530000000000000000e+02 4.900000000000000000e+01
9.540000000000000000e+02 4.900000000000000000e+01
9.550000000000000000e+02 4.900000000000000000e+01
1.680000000000000000e+02 5.000000000000000000e+01
1.690000000000000000e+02 5.000000000000000000e+01
1.700000000000000000e+02 5.000000000000000000e+01
1.710000000000000000e+02 5.000000000000000000e+01
1.720000000000000000e+02 5.000000000000000000e+01
1.730000000000000000e+02 5.000000000000000000e+01
3.180000000000000000e+02 5.000000000000000000e+01
3.190000000000000000e+02 5.000000000000000000e+01
3.200000000000000000e+02 5.000000000000000000e+01
3.210000000000000000e+02 5.000000000000000000e+01
3.220000000000000000e+02 5.000000000000000000e+01
3.230000000000000000e+02 5.000000000000000000e+01
3.240000000000000000e+02 5.000000000000000000e+01
4.580000000000000000e+02 5.000000000000000000e+01
4.590000000000000000e+02 5.000000000000000000e+01
4.600000000000000000e+02 5.000000000000000000e+01
4.610000000000000000e+02 5.000000000000000000e+01
4.620000000000000000e+02 5.000000000000000000e+01
4.630000000000000000e+02 5.000000000000000000e+01
5.870000000000000000e+02 5.000000000000000000e+01
5.880000000000000000e+02 5.000000000000000000e+01
5.890000000000000000e+02 5.000000000000000000e+01
5.900000000000000000e+02 5.000000000000000000e+01
5.910000000000000000e+02 5.000000000000000000e+01
5.920000000000000000e+02 5.000000000000000000e+01
5.930000000000000000e+02 5.000000000000000000e+01
7.040000000000000000e+02 5.000000000000000000e+01
7.050000000000000000e+02 5.000000000000000000e+01
7.060000000000000000e+02 5.000000000000000000e+01
7.070000000000000000e+02 5.000000000000000000e+01
7.080000000000000000e+02 5.000000000000000000e+01
7.090000000000000000e+02 5.000000000000000000e+01
8.210000000000000000e+02 5.000000000000000000e+01
8.220000000000000000e+02 5.000000000000000000e+01
8.230000000000000000e+02 5.000000000000000000e+01
8.240000000000000000e+02 5.000000000000000000e+01
8.250000000000000000e+02 5.000000000000000000e+01
8.260000000000000000e+02 5.000000000000000000e+01
8.270000000000000000e+02 5.000000000000000000e+01
9.500000000000000000e+02 5.000000000000000000e+01
9.510000000000000000e+02 5.000000000000000000e+01
9.520000000000000000e+02 5.000000000000000000e+01
9.530000000000000000e+02 5.000000000000000000e+01
9.540000000000000000e+02 5.000000000000000000e+01
9.550000000000000000e+02 5.000000000000000000e+01
1.680000000000000000e+02 5.100000000000000000e+01
1.690000000000000000e+02 5.100000000000000000e+01
1.700000000000000000e+02 5.100000000000000000e+01
1.710000000000000000e+02 5.100000000000000000e+01
1.720000000000000000e+02 5.100000000000000000e+01
1.730000000000000000e+02 5.100000000000000000e+01
3.180000000000000000e+02 5.100000000000000000e+01
3.190000000000000000e+02 5.100000000000000000e+01
3.200000000000000000e+02 5.100000000000000000e+01
3.210000000000000000e+02 5.100000000000000000e+01
3.220000000000000000e+02 5.100000000000000000e+01
3.230000000000000000e+02 5.100000000000000000e+01
3.240000000000000000e+02 5.100000000000000000e+01
4.580000000000000000e+02 5.100000000000000000e+01
4.590000000000000000e+02 5.100000000000000000e+01
4.600000000000000000e+02 5.100000000000000000e+01
4.610000000000000000e+02 5.100000000000000000e+01
4.620000000000000000e+02 5.100000000000000000e+01
4.630000000000000000e+02 5.100000000000000000e+01
5.870000000000000000e+02 5.100000000000000000e+01
5.880000000000000000e+02 5.100000000000000000e+01
5.890000000000000000e+02 5.100000000000000000e+01
5.900000000000000000e+02 5.100000000000000000e+01
5.910000000000000000e+02 5.100000000000000000e+01
5.920000000000000000e+02 5.100000000000000000e+01
5.930000000000000000e+02 5.100000000000000000e+01
7.040000000000000000e+02 5.100000000000000000e+01
7.050000000000000000e+02 5.100000000000000000e+01
7.060000000000000000e+02 5.100000000000000000e+01
7.070000000000000000e+02 5.100000000000000000e+01
7.080000000000000000e+02 5.100000000000000000e+01
7.090000000000000000e+02 5.100000000000000000e+01
8.210000000000000000e+02 5.100000000000000000e+01
8.220000000000000000e+02 5.100000000000000000e+01
8.230000000000000000e+02 5.100000000000000000e+01
8.240000000000000000e+02 5.100000000000000000e+01
8.250000000000000000e+02 5.100000000000000000e+01
8.260000000000000000e+02 5.100000000000000000e+01
8.270000000000000000e+02 5.100000000000000000e+01
9.500000000000000000e+02 5.100000000000000000e+01
9.510000000000000000e+02 5.100000000000000000e+01
9.520000000000000000e+02 5.100000000000000000e+01
9.530000000000000000e+02 5.100000000000000000e+01
9.540000000000000000e+02 5.100000000000000000e+01
9.550000000000000000e+02 5.100000000000000000e+01
1.680000000000000000e+02 5.200000000000000000e+01
1.690000000000000000e+02 5.200000000000000000e+01
1.700000000000000000e+02 5.200000000000000000e+01
1.710000000000000000e+02 5.200000000000000000e+01
1.720000000000000000e+02 5.200000000000000000e+01
1.730000000000000000e+02 5.200000000000000000e+01
3.180000000000000000e+02 5.200000000000000000e+01
3.190000000000000000e+02 5.200000000000000000e+01
3.200000000000000000e+02 5.200000000000000000e+01
3.210000000000000000e+02 5.200000000000000000e+01
3.220000000000000000e+02 5.200000000000000000e+01
3.230000000000000000e+02 5.200000000000000000e+01
3.240000000000000000e+02 5.200000000000000000e+01
4.580000000000000000e+02 5.200000000000000000e+01
4.590000000000000000e+02 5.200000000000000000e+01
4.600000000000000000e+02 5.200000000000000000e+01
4.610000000000000000e+02 5.200000000000000000e+01
4.620000000000000000e+02 5.200000000000000000e+01
4.630000000000000000e+02 5.200000000000000000e+01
4.640000000000000000e+02 5.200000000000000000e+01
5.870000000000000000e+02 5.200000000000000000e+01
5.880000000000000000e+02 5.200000000000000000e+01
5.890000000000000000e+02 5.200000000000000000e+01
5.900000000000000000e+02 5.200000000000000000e+01
5.910000000000000000e+02 5.200000000000000000e+01
5.920000000000000000e+02 5.200000000000000000e+01
5.930000000000000000e+02 5.200000000000000000e+01
7.040000000000000000e+02 5.200000000000000000e+01
7.050000000000000000e+02 5.200000000000000000e+01
7.060000000000000000e+02 5.200000000000000000e+01
7.070000000000000000e+02 5.200000000000000000e+01
7.080000000000000000e+02 5.200000000000000000e+01
7.090000000000000000e+02 5.200000000000000000e+01
8.210000000000000000e+02 5.200000000000000000e+01
8.220000000000000000e+02 5.200000000000000000e+01
8.230000000000000000e+02 5.200000000000000000e+01
8.240000000000000000e+02 5.200000000000000000e+01
8.250000000000000000e+02 5.200000000000000000e+01
8.260000000000000000e+02 5.200000000000000000e+01
8.270000000000000000e+02 5.200000000000000000e+01
9.500000000000000000e+02 5.200000000000000000e+01
9.510000000000000000e+02 5.200000000000000000e+01
9.520000000000000000e+02 5.200000000000000000e+01
9.530000000000000000e+02 5.200000000000000000e+01
9.540000000000000000e+02 5.200000000000000000e+01
9.550000000000000000e+02 5.200000000000000000e+01
1.680000000000000000e+02 5.300000000000000000e+01
1.690000000000000000e+02 5.300000000000000000e+01
1.700000000000000000e+02 5.300000000000000000e+01
1.710000000000000000e+02 5.300000000000000000e+01
1.720000000000000000e+02 5.300000000000000000e+01
1.730000000000000000e+02 5.300000000000000000e+01
3.180000000000000000e+02 5.300000000000000000e+01
3.190000000000000000e+02 5.300000000000000000e+01
3.200000000000000000e+02 5.300000000000000000e+01
3.210000000000000000e+02 5.300000000000000000e+01
3.220000000000000000e+02 5.300000000000000000e+01
3.230000000000000000e+02 5.300000000000000000e+01
3.240000000000000000e+02 5.300000000000000000e+01
4.580000000000000000e+02 5.300000000000000000e+01
4.590000000000000000e+02 5.300000000000000000e+01
4.600000000000000000e+02 5.300000000000000000e+01
4.610000000000000000e+02 5.300000000000000000e+01
4.620000000000000000e+02 5.300000000000000000e+01
4.630000000000000000e+02 5.300000000000000000e+01
4.640000000000000000e+02 5.300000000000000000e+01
5.870000000000000000e+02 5.300000000000000000e+01
5.880000000000000000e+02 5.300000000000000000e+01
5.890000000000000000e+02 5.300000000000000000e+01
5.900000000000000000e+02 5.300000000000000000e+01
5.910000000000000000e+02 5.300000000000000000e+01
5.920000000000000000e+02 5.300000000000000000e+01
5.930000000000000000e+02 5.300000000000000000e+01
7.040000000000000000e+02 5.300000000000000000e+01
7.050000000000000000e+02 5.300000000000000000e+01
7.060000000000000000e+02 5.300000000000000000e+01
7.070000000000000000e+02 5.300000000000000000e+01
7.080000000000000000e+02 5.300000000000000000e+01
7.090000000000000000e+02 5.300000000000000000e+01
8.210000000000000000e+02 5.300000000000000000e+01
8.220000000000000000e+02 5.300000000000000000e+01
8.230000000000000000e+02 5.300000000000000000e+01
8.240000000000000000e+02 5.300000000000000000e+01
8.250000000000000000e+02 5.300000000000000000e+01
8.260000000000000000e+02 5.300000000000000000e+01
8.270000000000000000e+02 5.300000000000000000e+01
9.500000000000000000e+02 5.300000000000000000e+01
9.510000000000000000e+02 5.300000000000000000e+01
9.520000000000000000e+02 5.300000000000000000e+01
9.530000000000000000e+02 5.300000000000000000e+01
9.540000000000000000e+02 5.300000000000000000e+01
9.550000000000000000e+02 5.300000000000000000e+01
1.680000000000000000e+02 5.400000000000000000e+01
1.690000000000000000e+02 5.400000000000000000e+01
1.700000000000000000e+02 5.400000000000000000e+01
1.710000000000000000e+02 5.400000000000000000e+01
1.720000000000000000e+02 5.400000000000000000e+01
1.730000000000000000e+02 5.400000000000000000e+01
3.180000000000000000e+02 5.400000000000000000e+01
3.190000000000000000e+02 5.400000000000000000e+01
3.200000000000000000e+02 5.400000000000000000e+01
3.210000000000000000e+02 5.400000000000000000e+01
3.220000000000000000e+02 5.400000000000000000e+01
3.230000000000000000e+02 5.400000000000000000e+01
3.240000000000000000e+02 5.400000000000000000e+01
4.580000000000000000e+02 5.400000000000000000e+01
4.590000000000000000e+02 5.400000000000000000e+01
4.600000000000000000e+02 5.400000000000000000e+01
4.610000000000000000e+02 5.400000000000000000e+01
4.620000000000000000e+02 5.400000000000000000e+01
4.630000000000000000e+02 5.400000000000000000e+01
4.640000000000000000e+02 5.400000000000000000e+01
5.870000000000000000e+02 5.400000000000000000e+01
5.880000000000000000e+02 5.400000000000000000e+01
5.890000000000000000e+02 5.400000000000000000e+01
5.900000000000000000e+02 5.400000000000000000e+01
5.910000000000000000e+02 5.400000000000000000e+01
5.920000000000000000e+02 5.400000000000000000e+01
5.930000000000000000e+02 5.400000000000000000e+01
7.040000000000000000e+02 5.400000000000000000e+01
7.050000000000000000e+02 5.400000000000000000e+01
7.060000000000000000e+02 5.400000000000000000e+01
7.070000000000000000e+02 5.400000000000000000e+01
7.080000000000000000e+02 5.400000000000000000e+01
7.090000000000000000e+02 5.400000000000000000e+01
8.210000000000000000e+02 5.400000000000000000e+01
8.220000000000000000e+02 5.400000000000000000e+01
8.230000000000000000e+02 5.400000000000000000e+01
8.240000000000000000e+02 5.400000000000000000e+01
8.250000000000000000e+02 5.400000000000000000e+01
8.260000000000000000e+02 5.400000000000000000e+01
8.270000000000000000e+02 5.400000000000000000e+01
9.500000000000000000e+02 5.400000000000000000e+01
9.510000000000000000e+02 5.400000000000000000e+01
9.520000000000000000e+02 5.400000000000000000e+01
9.530000000000000000e+02 5.400000000000000000e+01
9.540000000000000000e+02 5.400000000000000000e+01
9.550000000000000000e+02 5.400000000000000000e+01
1.680000000000000000e+02 5.500000000000000000e+01
1.690000000000000000e+02 5.500000000000000000e+01
1.700000000000000000e+02 5.500000000000000000e+01
1.710000000000000000e+02 5.500000000000000000e+01
1.720000000000000000e+02 5.500000000000000000e+01
1.730000000000000000e+02 5.500000000000000000e+01
3.180000000000000000e+02 5.500000000000000000e+01
3.190000000000000000e+02 5.500000000000000000e+01
3.200000000000000000e+02 5.500000000000000000e+01
3.210000000000000000e+02 5.500000000000000000e+01
3.220000000000000000e+02 5.500000000000000000e+01
3.230000000000000000e+02 5.500000000000000000e+01
3.240000000000000000e+02 5.500000000000000000e+01
4.580000000000000000e+02 5.500000000000000000e+01
4.590000000000000000e+02 5.500000000000000000e+01
4.600000000000000000e+02 5.500000000000000000e+01
4.610000000000000000e+02 5.500000000000000000e+01
4.620000000000000000e+02 5.500000000000000000e+01
4.630000000000000000e+02 5.500000000000000000e+01
4.640000000000000000e+02 5.500000000000000000e+01
5.870000000000000000e+02 5.500000000000000000e+01
5.880000000000000000e+02 5.500000000000000000e+01
5.890000000000000000e+02 5.500000000000000000e+01
5.900000000000000000e+02 5.500000000000000000e+01
5.910000000000000000e+02 5.500000000000000000e+01
5.920000000000000000e+02 5.500000000000000000e+01
5.930000000000000000e+02 5.500000000000000000e+01
7.040000000000000000e+02 5.500000000000000000e+01
7.050000000000000000e+02 5.500000000000000000e+01
7.060000000000000000e+02 5.500000000000000000e+01
7.070000000000000000e+02 5.500000000000000000e+01
7.080000000000000000e+02 5.500000000000000000e+01
7.090000000000000000e+02 5.500000000000000000e+01
8.210000000000000000e+02 5.500000000000000000e+01
8.220000000000000000e+02 5.500000000000000000e+01
8.230000000000000000e+02 5.500000000000000000e+01
8.240000000000000000e+02 5.500000000000000000e+01
8.250000000000000000e+02 5.500000000000000000e+01
8.260000000000000000e+02 5.500000000000000000e+01
8.270000000000000000e+02 5.500000000000000000e+01
9.500000000000000000e+02 5.500000000000000000e+01
9.510000000000000000e+02 5.500000000000000000e+01
9.520000000000000000e+02 5.500000000000000000e+01
9.530000000000000000e+02 5.500000000000000000e+01
9.540000000000000000e+02 5.500000000000000000e+01
9.550000000000000000e+02 5.500000000000000000e+01
1.670000000000000000e+02 5.600000000000000000e+01
1.680000000000000000e+02 5.600000000000000000e+01
1.690000000000000000e+02 5.600000000000000000e+01
1.700000000000000000e+02 5.600000000000000000e+01
1.710000000000000000e+02 5.600000000000000000e+01
1.720000000000000000e+02 5.600000000000000000e+01
1.730000000000000000e+02 5.600000000000000000e+01
3.180000000000000000e+02 5.600000000000000000e+01
3.190000000000000000e+02 5.600000000000000000e+01
3.200000000000000000e+02 5.600000000000000000e+01
3.210000000000000000e+02 5.600000000000000000e+01
3.220000000000000000e+02 5.600000000000000000e+01
3.230000000000000000e+02 5.600000000000000000e+01
3.240000000000000000e+02 5.600000000000000000e+01
4.580000000000000000e+02 5.600000000000000000e+01
4.590000000000000000e+02 5.600000000000000000e+01
4.600000000000000000e+02 5.600000000000000000e+01
4.610000000000000000e+02 5.600000000000000000e+01
4.620000000000000000e+02 5.600000000000000000e+01
4.630000000000000000e+02 5.600000000000000000e+01
4.640000000000000000e+02 5.600000000000000000e+01
5.870000000000000000e+02 5.600000000000000000e+01
5.880000000000000000e+02 5.600000000000000000e+01
5.890000000000000000e+02 5.600000000000000000e+01
5.900000000000000000e+02 5.600000000000000000e+01
5.910000000000000000e+02 5.600000000000000000e+01
5.920000000000000000e+02 5.600000000000000000e+01
5.930000000000000000e+02 5.600000000000000000e+01
7.040000000000000000e+02 5.600000000000000000e+01
7.050000000000000000e+02 5.600000000000000000e+01
7.060000000000000000e+02 5.600000000000000000e+01
7.070000000000000000e+02 5.600000000000000000e+01
7.080000000000000000e+02 5.600000000000000000e+01
7.090000000000000000e+02 5.600000000000000000e+01
8.210000000000000000e+02 5.600000000000000000e+01
8.220000000000000000e+02 5.600000000000000000e+01
8.230000000000000000e+02 5.600000000000000000e+01
8.240000000000000000e+02 5.600000000000000000e+01
8.250000000000000000e+02 5.600000000000000000e+01
8.260000000000000000e+02 5.600000000000000000e+01
8.270000000000000000e+02 5.600000000000000000e+01
9.500000000000000000e+02 5.600000000000000000e+01
9.510000000000000000e+02 5.600000000000000000e+01
9.520000000000000000e+02 5.600000000000000000e+01
9.530000000000000000e+02 5.600000000000000000e+01
9.540000000000000000e+02 5.600000000000000000e+01
9.550000000000000000e+02 5.600000000000000000e+01
1.670000000000000000e+02 5.700000000000000000e+01
1.680000000000000000e+02 5.700000000000000000e+01
1.690000000000000000e+02 5.700000000000000000e+01
1.700000000000000000e+02 5.700000000000000000e+01
1.710000000000000000e+02 5.700000000000000000e+01
1.720000000000000000e+02 5.700000000000000000e+01
1.730000000000000000e+02 5.700000000000000000e+01
3.180000000000000000e+02 5.700000000000000000e+01
3.190000000000000000e+02 5.700000000000000000e+01
3.200000000000000000e+02 5.700000000000000000e+01
3.210000000000000000e+02 5.700000000000000000e+01
3.220000000000000000e+02 5.700000000000000000e+01
3.230000000000000000e+02 5.700000000000000000e+01
3.240000000000000000e+02 5.700000000000000000e+01
4.580000000000000000e+02 5.700000000000000000e+01
4.590000000000000000e+02 5.700000000000000000e+01
4.600000000000000000e+02 5.700000000000000000e+01
4.610000000000000000e+02 5.700000000000000000e+01
4.620000000000000000e+02 5.700000000000000000e+01
4.630000000000000000e+02 5.700000000000000000e+01
4.640000000000000000e+02 5.700000000000000000e+01
5.870000000000000000e+02 5.700000000000000000e+01
5.880000000000000000e+02 5.700000000000000000e+01
5.890000000000000000e+02 5.700000000000000000e+01
5.900000000000000000e+02 5.700000000000000000e+01
5.910000000000000000e+02 5.700000000000000000e+01
5.920000000000000000e+02 5.700000000000000000e+01
5.930000000000000000e+02 5.700000000000000000e+01
