1.000000000000000000e+01 0.000000000000000000e+00
1.100000000000000000e+01 0.000000000000000000e+00
1.200000000000000000e+01 0.000000000000000000e+00
1.410000000000000000e+02 0.000000000000000000e+00
1.420000000000000000e+02 0.000000000000000000e+00
1.430000000000000000e+02 0.000000000000000000e+00
1.510000000000000000e+02 0.000000000000000000e+00
1.520000000000000000e+02 0.000000000000000000e+00
1.530000000000000000e+02 0.000000000000000000e+00
1.540000000000000000e+02 0.000000000000000000e+00
3.100000000000000000e+02 0.000000000000000000e+00
3.110000000000000000e+02 0.000000000000000000e+00
3.120000000000000000e+02 0.000000000000000000e+00
3.200000000000000000e+02 0.000000000000000000e+00
3.210000000000000000e+02 0.000000000000000000e+00
3.220000000000000000e+02 0.000000000000000000e+00
3.230000000000000000e+02 0.000000000000000000e+00
4.860000000000000000e+02 0.000000000000000000e+00
4.870000000000000000e+02 0.000000000000000000e+00
4.880000000000000000e+02 0.000000000000000000e+00
4.960000000000000000e+02 0.000000000000000000e+00
4.970000000000000000e+02 0.000000000000000000e+00
4.980000000000000000e+02 0.000000000000000000e+00
4.990000000000000000e+02 0.000000000000000000e+00
6.630000000000000000e+02 0.000000000000000000e+00
6.640000000000000000e+02 0.000000000000000000e+00
6.650000000000000000e+02 0.000000000000000000e+00
6.730000000000000000e+02 0.000000000000000000e+00
6.740000000000000000e+02 0.000000000000000000e+00
6.750000000000000000e+02 0.000000000000000000e+00
6.760000000000000000e+02 0.000000000000000000e+00
8.360000000000000000e+02 0.000000000000000000e+00
8.370000000000000000e+02 0.000000000000000000e+00
8.380000000000000000e+02 0.000000000000000000e+00
8.390000000000000000e+02 0.000000000000000000e+00
8.470000000000000000e+02 0.000000000000000000e+00
8.480000000000000000e+02 0.000000000000000000e+00
8.490000000000000000e+02 0.000000000000000000e+00
1.000000000000000000e+01 1.000000000000000000e+00
1.100000000000000000e+01 1.000000000000000000e+00
1.200000000000000000e+01 1.000000000000000000e+00
1.410000000000000000e+02 1.000000000000000000e+00
1.420000000000000000e+02 1.000000000000000000e+00
1.430000000000000000e+02 1.000000000000000000e+00
1.510000000000000000e+02 1.000000000000000000e+00
1.520000000000000000e+02 1.000000000000000000e+00
1.530000000000000000e+02 1.000000000000000000e+00
3.100000000000000000e+02 1.000000000000000000e+00
3.110000000000000000e+02 1.000000000000000000e+00
3.120000000000000000e+02 1.000000000000000000e+00
3.200000000000000000e+02 1.000000000000000000e+00
3.210000000000000000e+02 1.000000000000000000e+00
3.220000000000000000e+02 1.000000000000000000e+00
3.230000000000000000e+02 1.000000000000000000e+00
4.860000000000000000e+02 1.000000000000000000e+00
4.870000000000000000e+02 1.000000000000000000e+00
4.880000000000000000e+02 1.000000000000000000e+00
4.960000000000000000e+02 1.000000000000000000e+00
4.970000000000000000e+02 1.000000000000000000e+00
4.980000000000000000e+02 1.000000000000000000e+00
6.630000000000000000e+02 1.000000000000000000e+00
6.640000000000000000e+02 1.000000000000000000e+00
6.650000000000000000e+02 1.000000000000000000e+00
6.730000000000000000e+02 1.000000000000000000e+00
6.740000000000000000e+02 1.000000000000000000e+00
6.750000000000000000e+02 1.000000000000000000e+00
6.760000000000000000e+02 1.000000000000000000e+00
8.360000000000000000e+02 1.000000000000000000e+00
8.370000000000000000e+02 1.000000000000000000e+00
8.380000000000000000e+02 1.000000000000000000e+00
8.390000000000000000e+02 1.000000000000000000e+00
8.470000000000000000e+02 1.000000000000000000e+00
8.480000000000000000e+02 1.000000000000000000e+00
8.490000000000000000e+02 1.000000000000000000e+00
1.000000000000000000e+01 2.000000000000000000e+00
1.100000000000000000e+01 2.000000000000000000e+00
1.200000000000000000e+01 2.000000000000000000e+00
1.410000000000000000e+02 2.000000000000000000e+00
1.420000000000000000e+02 2.000000000000000000e+00
1.430000000000000000e+02 2.000000000000000000e+00
1.510000000000000000e+02 2.000000000000000000e+00
1.520000000000000000e+02 2.000000000000000000e+00
1.530000000000000000e+02 2.000000000000000000e+00
3.100000000000000000e+02 2.000000000000000000e+00
3.110000000000000000e+02 2.000000000000000000e+00
3.120000000000000000e+02 2.000000000000000000e+00
3.200000000000000000e+02 2.000000000000000000e+00
3.210000000000000000e+02 2.000000000000000000e+00
3.220000000000000000e+02 2.000000000000000000e+00
4.860000000000000000e+02 2.000000000000000000e+00
4.870000000000000000e+02 2.000000000000000000e+00
4.880000000000000000e+02 2.000000000000000000e+00
4.960000000000000000e+02 2.000000000000000000e+00
4.970000000000000000e+02 2.000000000000000000e+00
4.980000000000000000e+02 2.000000000000000000e+00
6.630000000000000000e+02 2.000000000000000000e+00
6.640000000000000000e+02 2.000000000000000000e+00
6.650000000000000000e+02 2.000000000000000000e+00
6.660000000000000000e+02 2.000000000000000000e+00
6.730000000000000000e+02 2.000000000000000000e+00
6.740000000000000000e+02 2.000000000000000000e+00
6.750000000000000000e+02 2.000000000000000000e+00
6.760000000000000000e+02 2.000000000000000000e+00
8.370000000000000000e+02 2.000000000000000000e+00
8.380000000000000000e+02 2.000000000000000000e+00
8.390000000000000000e+02 2.000000000000000000e+00
8.470000000000000000e+02 2.000000000000000000e+00
8.480000000000000000e+02 2.000000000000000000e+00
8.490000000000000000e+02 2.000000000000000000e+00
1.000000000000000000e+01 3.000000000000000000e+00
1.100000000000000000e+01 3.000000000000000000e+00
1.200000000000000000e+01 3.000000000000000000e+00
1.410000000000000000e+02 3.000000000000000000e+00
1.420000000000000000e+02 3.000000000000000000e+00
1.430000000000000000e+02 3.000000000000000000e+00
1.510000000000000000e+02 3.000000000000000000e+00
1.520000000000000000e+02 3.000000000000000000e+00
1.530000000000000000e+02 3.000000000000000000e+00
3.100000000000000000e+02 3.000000000000000000e+00
3.110000000000000000e+02 3.000000000000000000e+00
3.120000000000000000e+02 3.000000000000000000e+00
3.200000000000000000e+02 3.000000000000000000e+00
3.210000000000000000e+02 3.000000000000000000e+00
3.220000000000000000e+02 3.000000000000000000e+00
4.860000000000000000e+02 3.000000000000000000e+00
4.870000000000000000e+02 3.000000000000000000e+00
4.880000000000000000e+02 3.000000000000000000e+00
4.960000000000000000e+02 3.000000000000000000e+00
4.970000000000000000e+02 3.000000000000000000e+00
4.980000000000000000e+02 3.000000000000000000e+00
6.630000000000000000e+02 3.000000000000000000e+00
6.640000000000000000e+02 3.000000000000000000e+00
6.650000000000000000e+02 3.000000000000000000e+00
6.660000000000000000e+02 3.000000000000000000e+00
6.730000000000000000e+02 3.000000000000000000e+00
6.740000000000000000e+02 3.000000000000000000e+00
6.750000000000000000e+02 3.000000000000000000e+00
8.370000000000000000e+02 3.000000000000000000e+00
8.380000000000000000e+02 3.000000000000000000e+00
8.390000000000000000e+02 3.000000000000000000e+00
8.470000000000000000e+02 3.000000000000000000e+00
8.480000000000000000e+02 3.000000000000000000e+00
8.490000000000000000e+02 3.000000000000000000e+00
1.000000000000000000e+01 4.000000000000000000e+00
1.100000000000000000e+01 4.000000000000000000e+00
1.200000000000000000e+01 4.000000000000000000e+00
1.410000000000000000e+02 4.000000000000000000e+00
1.420000000000000000e+02 4.000000000000000000e+00
1.430000000000000000e+02 4.000000000000000000e+00
1.510000000000000000e+02 4.000000000000000000e+00
1.520000000000000000e+02 4.000000000000000000e+00
1.530000000000000000e+02 4.000000000000000000e+00
3.100000000000000000e+02 4.000000000000000000e+00
3.110000000000000000e+02 4.000000000000000000e+00
3.120000000000000000e+02 4.000000000000000000e+00
3.200000000000000000e+02 4.000000000000000000e+00
3.210000000000000000e+02 4.000000000000000000e+00
3.220000000000000000e+02 4.000000000000000000e+00
4.860000000000000000e+02 4.000000000000000000e+00
4.870000000000000000e+02 4.000000000000000000e+00
4.880000000000000000e+02 4.000000000000000000e+00
4.960000000000000000e+02 4.000000000000000000e+00
4.970000000000000000e+02 4.000000000000000000e+00
4.980000000000000000e+02 4.000000000000000000e+00
6.630000000000000000e+02 4.000000000000000000e+00
6.640000000000000000e+02 4.000000000000000000e+00
6.650000000000000000e+02 4.000000000000000000e+00
6.660000000000000000e+02 4.000000000000000000e+00
6.730000000000000000e+02 4.000000000000000000e+00
6.740000000000000000e+02 4.000000000000000000e+00
6.750000000000000000e+02 4.000000000000000000e+00
8.370000000000000000e+02 4.000000000000000000e+00
8.380000000000000000e+02 4.000000000000000000e+00
8.390000000000000000e+02 4.000000000000000000e+00
8.470000000000000000e+02 4.000000000000000000e+00
8.480000000000000000e+02 4.000000000000000000e+00
8.490000000000000000e+02 4.000000000000000000e+00
1.000000000000000000e+01 5.000000000000000000e+00
1.100000000000000000e+01 5.000000000000000000e+00
1.200000000000000000e+01 5.000000000000000000e+00
1.410000000000000000e+02 5.000000000000000000e+00
1.420000000000000000e+02 5.000000000000000000e+00
1.430000000000000000e+02 5.000000000000000000e+00
1.510000000000000000e+02 5.000000000000000000e+00
1.520000000000000000e+02 5.000000000000000000e+00
1.530000000000000000e+02 5.000000000000000000e+00
3.100000000000000000e+02 5.000000000000000000e+00
3.110000000000000000e+02 5.000000000000000000e+00
3.120000000000000000e+02 5.000000000000000000e+00
3.200000000000000000e+02 5.000000000000000000e+00
3.210000000000000000e+02 5.000000000000000000e+00
3.220000000000000000e+02 5.000000000000000000e+00
4.860000000000000000e+02 5.000000000000000000e+00
4.870000000000000000e+02 5.000000000000000000e+00
4.880000000000000000e+02 5.000000000000000000e+00
4.890000000000000000e+02 5.000000000000000000e+00
4.960000000000000000e+02 5.000000000000000000e+00
4.970000000000000000e+02 5.000000000000000000e+00
4.980000000000000000e+02 5.000000000000000000e+00
6.630000000000000000e+02 5.000000000000000000e+00
6.640000000000000000e+02 5.000000000000000000e+00
6.650000000000000000e+02 5.000000000000000000e+00
6.660000000000000000e+02 5.000000000000000000e+00
6.730000000000000000e+02 5.000000000000000000e+00
6.740000000000000000e+02 5.000000000000000000e+00
6.750000000000000000e+02 5.000000000000000000e+00
8.370000000000000000e+02 5.000000000000000000e+00
8.380000000000000000e+02 5.000000000000000000e+00
8.390000000000000000e+02 5.000000000000000000e+00
8.460000000000000000e+02 5.000000000000000000e+00
8.470000000000000000e+02 5.000000000000000000e+00
8.480000000000000000e+02 5.000000000000000000e+00
8.490000000000000000e+02 5.000000000000000000e+00
1.000000000000000000e+01 6.000000000000000000e+00
1.100000000000000000e+01 6.000000000000000000e+00
1.200000000000000000e+01 6.000000000000000000e+00
1.410000000000000000e+02 6.000000000000000000e+00
1.420000000000000000e+02 6.000000000000000000e+00
1.430000000000000000e+02 6.000000000000000000e+00
1.510000000000000000e+02 6.000000000000000000e+00
1.520000000000000000e+02 6.000000000000000000e+00
1.530000000000000000e+02 6.000000000000000000e+00
3.100000000000000000e+02 6.000000000000000000e+00
3.110000000000000000e+02 6.000000000000000000e+00
3.120000000000000000e+02 6.000000000000000000e+00
3.200000000000000000e+02 6.000000000000000000e+00
3.210000000000000000e+02 6.000000000000000000e+00
3.220000000000000000e+02 6.000000000000000000e+00
4.860000000000000000e+02 6.000000000000000000e+00
4.870000000000000000e+02 6.000000000000000000e+00
4.880000000000000000e+02 6.000000000000000000e+00
4.890000000000000000e+02 6.000000000000000000e+00
4.960000000000000000e+02 6.000000000000000000e+00
4.970000000000000000e+02 6.000000000000000000e+00
4.980000000000000000e+02 6.000000000000000000e+00
6.630000000000000000e+02 6.000000000000000000e+00
6.640000000000000000e+02 6.000000000000000000e+00
6.650000000000000000e+02 6.000000000000000000e+00
6.660000000000000000e+02 6.000000000000000000e+00
6.730000000000000000e+02 6.000000000000000000e+00
6.740000000000000000e+02 6.000000000000000000e+00
6.750000000000000000e+02 6.000000000000000000e+00
8.370000000000000000e+02 6.000000000000000000e+00
8.380000000000000000e+02 6.000000000000000000e+00
8.390000000000000000e+02 6.000000000000000000e+00
8.460000000000000000e+02 6.000000000000000000e+00
8.470000000000000000e+02 6.000000000000000000e+00
8.480000000000000000e+02 6.000000000000000000e+00
8.490000000000000000e+02 6.000000000000000000e+00
1.000000000000000000e+01 7.000000000000000000e+00
1.100000000000000000e+01 7.000000000000000000e+00
1.200000000000000000e+01 7.000000000000000000e+00
1.410000000000000000e+02 7.000000000000000000e+00
1.420000000000000000e+02 7.000000000000000000e+00
1.430000000000000000e+02 7.000000000000000000e+00
1.510000000000000000e+02 7.000000000000000000e+00
1.520000000000000000e+02 7.000000000000000000e+00
1.530000000000000000e+02 7.000000000000000000e+00
3.100000000000000000e+02 7.000000000000000000e+00
3.110000000000000000e+02 7.000000000000000000e+00
3.120000000000000000e+02 7.000000000000000000e+00
3.200000000000000000e+02 7.000000000000000000e+00
3.210000000000000000e+02 7.000000000000000000e+00
3.220000000000000000e+02 7.000000000000000000e+00
4.860000000000000000e+02 7.000000000000000000e+00
4.870000000000000000e+02 7.000000000000000000e+00
4.880000000000000000e+02 7.000000000000000000e+00
4.890000000000000000e+02 7.000000000000000000e+00
4.960000000000000000e+02 7.000000000000000000e+00
4.970000000000000000e+02 7.000000000000000000e+00
4.980000000000000000e+02 7.000000000000000000e+00
6.630000000000000000e+02 7.000000000000000000e+00
6.640000000000000000e+02 7.000000000000000000e+00
6.650000000000000000e+02 7.000000000000000000e+00
6.660000000000000000e+02 7.000000000000000000e+00
6.730000000000000000e+02 7.000000000000000000e+00
6.740000000000000000e+02 7.000000000000000000e+00
6.750000000000000000e+02 7.000000000000000000e+00
8.370000000000000000e+02 7.000000000000000000e+00
8.380000000000000000e+02 7.000000000000000000e+00
8.390000000000000000e+02 7.000000000000000000e+00
8.460000000000000000e+02 7.000000000000000000e+00
8.470000000000000000e+02 7.000000000000000000e+00
8.480000000000000000e+02 7.000000000000000000e+00
8.490000000000000000e+02 7.000000000000000000e+00
1.000000000000000000e+01 8.000000000000000000e+00
1.100000000000000000e+01 8.000000000000000000e+00
1.200000000000000000e+01 8.000000000000000000e+00
1.410000000000000000e+02 8.000000000000000000e+00
1.420000000000000000e+02 8.000000000000000000e+00
1.430000000000000000e+02 8.000000000000000000e+00
1.500000000000000000e+02 8.000000000000000000e+00
1.510000000000000000e+02 8.000000000000000000e+00
1.520000000000000000e+02 8.000000000000000000e+00
1.530000000000000000e+02 8.000000000000000000e+00
3.100000000000000000e+02 8.000000000000000000e+00
3.110000000000000000e+02 8.000000000000000000e+00
3.120000000000000000e+02 8.000000000000000000e+00
3.200000000000000000e+02 8.000000000000000000e+00
3.210000000000000000e+02 8.000000000000000000e+00
3.220000000000000000e+02 8.000000000000000000e+00
4.860000000000000000e+02 8.000000000000000000e+00
4.870000000000000000e+02 8.000000000000000000e+00
4.880000000000000000e+02 8.000000000000000000e+00
4.890000000000000000e+02 8.000000000000000000e+00
4.960000000000000000e+02 8.000000000000000000e+00
4.970000000000000000e+02 8.000000000000000000e+00
4.980000000000000000e+02 8.000000000000000000e+00
6.630000000000000000e+02 8.000000000000000000e+00
6.640000000000000000e+02 8.000000000000000000e+00
6.650000000000000000e+02 8.000000000000000000e+00
6.660000000000000000e+02 8.000000000000000000e+00
6.730000000000000000e+02 8.000000000000000000e+00
6.740000000000000000e+02 8.000000000000000000e+00
6.750000000000000000e+02 8.000000000000000000e+00
8.370000000000000000e+02 8.000000000000000000e+00
8.380000000000000000e+02 8.000000000000000000e+00
8.390000000000000000e+02 8.000000000000000000e+00
8.460000000000000000e+02 8.000000000000000000e+00
8.470000000000000000e+02 8.000000000000000000e+00
8.480000000000000000e+02 8.000000000000000000e+00
1.000000000000000000e+01 9.000000000000000000e+00
1.100000000000000000e+01 9.000000000000000000e+00
1.200000000000000000e+01 9.000000000000000000e+00
1.410000000000000000e+02 9.000000000000000000e+00
1.420000000000000000e+02 9.000000000000000000e+00
1.430000000000000000e+02 9.000000000000000000e+00
1.500000000000000000e+02 9.000000000000000000e+00
1.510000000000000000e+02 9.000000000000000000e+00
1.520000000000000000e+02 9.000000000000000000e+00
1.530000000000000000e+02 9.000000000000000000e+00
3.100000000000000000e+02 9.000000000000000000e+00
3.110000000000000000e+02 9.000000000000000000e+00
3.120000000000000000e+02 9.000000000000000000e+00
3.190000000000000000e+02 9.000000000000000000e+00
3.200000000000000000e+02 9.000000000000000000e+00
3.210000000000000000e+02 9.000000000000000000e+00
3.220000000000000000e+02 9.000000000000000000e+00
4.860000000000000000e+02 9.000000000000000000e+00
4.870000000000000000e+02 9.000000000000000000e+00
4.880000000000000000e+02 9.000000000000000000e+00
4.890000000000000000e+02 9.000000000000000000e+00
4.950000000000000000e+02 9.000000000000000000e+00
4.960000000000000000e+02 9.000000000000000000e+00
4.970000000000000000e+02 9.000000000000000000e+00
4.980000000000000000e+02 9.000000000000000000e+00
6.630000000000000000e+02 9.000000000000000000e+00
6.640000000000000000e+02 9.000000000000000000e+00
6.650000000000000000e+02 9.000000000000000000e+00
6.660000000000000000e+02 9.000000000000000000e+00
6.730000000000000000e+02 9.000000000000000000e+00
6.740000000000000000e+02 9.000000000000000000e+00
6.750000000000000000e+02 9.000000000000000000e+00
8.370000000000000000e+02 9.000000000000000000e+00
8.380000000000000000e+02 9.000000000000000000e+00
8.390000000000000000e+02 9.000000000000000000e+00
8.460000000000000000e+02 9.000000000000000000e+00
8.470000000000000000e+02 9.000000000000000000e+00
8.480000000000000000e+02 9.000000000000000000e+00
1.000000000000000000e+01 1.000000000000000000e+01
1.100000000000000000e+01 1.000000000000000000e+01
1.200000000000000000e+01 1.000000000000000000e+01
1.410000000000000000e+02 1.000000000000000000e+01
1.420000000000000000e+02 1.000000000000000000e+01
1.430000000000000000e+02 1.000000000000000000e+01
1.500000000000000000e+02 1.000000000000000000e+01
1.510000000000000000e+02 1.000000000000000000e+01
1.520000000000000000e+02 1.000000000000000000e+01
1.530000000000000000e+02 1.000000000000000000e+01
3.100000000000000000e+02 1.000000000000000000e+01
3.110000000000000000e+02 1.000000000000000000e+01
3.120000000000000000e+02 1.000000000000000000e+01
3.190000000000000000e+02 1.000000000000000000e+01
3.200000000000000000e+02 1.000000000000000000e+01
3.210000000000000000e+02 1.000000000000000000e+01
3.220000000000000000e+02 1.000000000000000000e+01
4.860000000000000000e+02 1.000000000000000000e+01
4.870000000000000000e+02 1.000000000000000000e+01
4.880000000000000000e+02 1.000000000000000000e+01
4.890000000000000000e+02 1.000000000000000000e+01
4.950000000000000000e+02 1.000000000000000000e+01
4.960000000000000000e+02 1.000000000000000000e+01
4.970000000000000000e+02 1.000000000000000000e+01
4.980000000000000000e+02 1.000000000000000000e+01
6.640000000000000000e+02 1.000000000000000000e+01
6.650000000000000000e+02 1.000000000000000000e+01
6.660000000000000000e+02 1.000000000000000000e+01
6.730000000000000000e+02 1.000000000000000000e+01
6.740000000000000000e+02 1.000000000000000000e+01
6.750000000000000000e+02 1.000000000000000000e+01
8.370000000000000000e+02 1.000000000000000000e+01
8.380000000000000000e+02 1.000000000000000000e+01
8.390000000000000000e+02 1.000000000000000000e+01
8.460000000000000000e+02 1.000000000000000000e+01
8.470000000000000000e+02 1.000000000000000000e+01
8.480000000000000000e+02 1.000000000000000000e+01
1.000000000000000000e+01 1.100000000000000000e+01
1.100000000000000000e+01 1.100000000000000000e+01
1.200000000000000000e+01 1.100000000000000000e+01
1.410000000000000000e+02 1.100000000000000000e+01
1.420000000000000000e+02 1.100000000000000000e+01
1.430000000000000000e+02 1.100000000000000000e+01
1.500000000000000000e+02 1.100000000000000000e+01
1.510000000000000000e+02 1.100000000000000000e+01
1.520000000000000000e+02 1.100000000000000000e+01
1.530000000000000000e+02 1.100000000000000000e+01
3.100000000000000000e+02 1.100000000000000000e+01
3.110000000000000000e+02 1.100000000000000000e+01
3.120000000000000000e+02 1.100000000000000000e+01
3.190000000000000000e+02 1.100000000000000000e+01
3.200000000000000000e+02 1.100000000000000000e+01
3.210000000000000000e+02 1.100000000000000000e+01
3.220000000000000000e+02 1.100000000000000000e+01
4.860000000000000000e+02 1.100000000000000000e+01
4.870000000000000000e+02 1.100000000000000000e+01
4.880000000000000000e+02 1.100000000000000000e+01
4.890000000000000000e+02 1.100000000000000000e+01
4.950000000000000000e+02 1.100000000000000000e+01
4.960000000000000000e+02 1.100000000000000000e+01
4.970000000000000000e+02 1.100000000000000000e+01
4.980000000000000000e+02 1.100000000000000000e+01
6.640000000000000000e+02 1.100000000000000000e+01
6.650000000000000000e+02 1.100000000000000000e+01
6.660000000000000000e+02 1.100000000000000000e+01
6.720000000000000000e+02 1.100000000000000000e+01
6.730000000000000000e+02 1.100000000000000000e+01
6.740000000000000000e+02 1.100000000000000000e+01
6.750000000000000000e+02 1.100000000000000000e+01
8.370000000000000000e+02 1.100000000000000000e+01
8.380000000000000000e+02 1.100000000000000000e+01
8.390000000000000000e+02 1.100000000000000000e+01
8.460000000000000000e+02 1.100000000000000000e+01
8.470000000000000000e+02 1.100000000000000000e+01
8.480000000000000000e+02 1.100000000000000000e+01
1.000000000000000000e+01 1.200000000000000000e+01
1.100000000000000000e+01 1.200000000000000000e+01
1.200000000000000000e+01 1.200000000000000000e+01
1.410000000000000000e+02 1.200000000000000000e+01
1.420000000000000000e+02 1.200000000000000000e+01
1.430000000000000000e+02 1.200000000000000000e+01
1.440000000000000000e+02 1.200000000000000000e+01
1.500000000000000000e+02 1.200000000000000000e+01
1.510000000000000000e+02 1.200000000000000000e+01
1.520000000000000000e+02 1.200000000000000000e+01
1.530000000000000000e+02 1.200000000000000000e+01
3.100000000000000000e+02 1.200000000000000000e+01
3.110000000000000000e+02 1.200000000000000000e+01
3.120000000000000000e+02 1.200000000000000000e+01
3.190000000000000000e+02 1.200000000000000000e+01
3.200000000000000000e+02 1.200000000000000000e+01
3.210000000000000000e+02 1.200000000000000000e+01
3.220000000000000000e+02 1.200000000000000000e+01
4.860000000000000000e+02 1.200000000000000000e+01
4.870000000000000000e+02 1.200000000000000000e+01
4.880000000000000000e+02 1.200000000000000000e+01
4.890000000000000000e+02 1.200000000000000000e+01
4.950000000000000000e+02 1.200000000000000000e+01
4.960000000000000000e+02 1.200000000000000000e+01
4.970000000000000000e+02 1.200000000000000000e+01
6.640000000000000000e+02 1.200000000000000000e+01
6.650000000000000000e+02 1.200000000000000000e+01
6.660000000000000000e+02 1.200000000000000000e+01
6.720000000000000000e+02 1.200000000000000000e+01
6.730000000000000000e+02 1.200000000000000000e+01
6.740000000000000000e+02 1.200000000000000000e+01
6.750000000000000000e+02 1.200000000000000000e+01
8.370000000000000000e+02 1.200000000000000000e+01
8.380000000000000000e+02 1.200000000000000000e+01
8.390000000000000000e+02 1.200000000000000000e+01
8.460000000000000000e+02 1.200000000000000000e+01
8.470000000000000000e+02 1.200000000000000000e+01
8.480000000000000000e+02 1.200000000000000000e+01
1.000000000000000000e+01 1.300000000000000000e+01
1.100000000000000000e+01 1.300000000000000000e+01
1.200000000000000000e+01 1.300000000000000000e+01
1.410000000000000000e+02 1.300000000000000000e+01
1.420000000000000000e+02 1.300000000000000000e+01
1.430000000000000000e+02 1.300000000000000000e+01
1.440000000000000000e+02 1.300000000000000000e+01
1.500000000000000000e+02 1.300000000000000000e+01
1.510000000000000000e+02 1.300000000000000000e+01
1.520000000000000000e+02 1.300000000000000000e+01
3.100000000000000000e+02 1.300000000000000000e+01
3.110000000000000000e+02 1.300000000000000000e+01
3.120000000000000000e+02 1.300000000000000000e+01
3.130000000000000000e+02 1.300000000000000000e+01
3.190000000000000000e+02 1.300000000000000000e+01
3.200000000000000000e+02 1.300000000000000000e+01
3.210000000000000000e+02 1.300000000000000000e+01
3.220000000000000000e+02 1.300000000000000000e+01
4.870000000000000000e+02 1.300000000000000000e+01
4.880000000000000000e+02 1.300000000000000000e+01
4.890000000000000000e+02 1.300000000000000000e+01
4.950000000000000000e+02 1.300000000000000000e+01
4.960000000000000000e+02 1.300000000000000000e+01
4.970000000000000000e+02 1.300000000000000000e+01
6.640000000000000000e+02 1.300000000000000000e+01
6.650000000000000000e+02 1.300000000000000000e+01
6.660000000000000000e+02 1.300000000000000000e+01
6.720000000000000000e+02 1.300000000000000000e+01
6.730000000000000000e+02 1.300000000000000000e+01
6.740000000000000000e+02 1.300000000000000000e+01
8.370000000000000000e+02 1.300000000000000000e+01
8.380000000000000000e+02 1.300000000000000000e+01
8.390000000000000000e+02 1.300000000000000000e+01
8.460000000000000000e+02 1.300000000000000000e+01
8.470000000000000000e+02 1.300000000000000000e+01
8.480000000000000000e+02 1.300000000000000000e+01
1.000000000000000000e+01 1.400000000000000000e+01
1.100000000000000000e+01 1.400000000000000000e+01
1.200000000000000000e+01 1.400000000000000000e+01
1.410000000000000000e+02 1.400000000000000000e+01
1.420000000000000000e+02 1.400000000000000000e+01
1.430000000000000000e+02 1.400000000000000000e+01
1.440000000000000000e+02 1.400000000000000000e+01
1.500000000000000000e+02 1.400000000000000000e+01
1.510000000000000000e+02 1.400000000000000000e+01
1.520000000000000000e+02 1.400000000000000000e+01
3.100000000000000000e+02 1.400000000000000000e+01
3.110000000000000000e+02 1.400000000000000000e+01
3.120000000000000000e+02 1.400000000000000000e+01
3.130000000000000000e+02 1.400000000000000000e+01
3.190000000000000000e+02 1.400000000000000000e+01
3.200000000000000000e+02 1.400000000000000000e+01
3.210000000000000000e+02 1.400000000000000000e+01
4.870000000000000000e+02 1.400000000000000000e+01
4.880000000000000000e+02 1.400000000000000000e+01
4.890000000000000000e+02 1.400000000000000000e+01
4.950000000000000000e+02 1.400000000000000000e+01
4.960000000000000000e+02 1.400000000000000000e+01
4.970000000000000000e+02 1.400000000000000000e+01
6.640000000000000000e+02 1.400000000000000000e+01
6.650000000000000000e+02 1.400000000000000000e+01
6.660000000000000000e+02 1.400000000000000000e+01
6.720000000000000000e+02 1.400000000000000000e+01
6.730000000000000000e+02 1.400000000000000000e+01
6.740000000000000000e+02 1.400000000000000000e+01
8.370000000000000000e+02 1.400000000000000000e+01
8.380000000000000000e+02 1.400000000000000000e+01
8.390000000000000000e+02 1.400000000000000000e+01
8.460000000000000000e+02 1.400000000000000000e+01
8.470000000000000000e+02 1.400000000000000000e+01
8.480000000000000000e+02 1.400000000000000000e+01
1.000000000000000000e+01 1.500000000000000000e+01
1.100000000000000000e+01 1.500000000000000000e+01
1.200000000000000000e+01 1.500000000000000000e+01
1.420000000000000000e+02 1.500000000000000000e+01
1.430000000000000000e+02 1.500000000000000000e+01
1.440000000000000000e+02 1.500000000000000000e+01
1.500000000000000000e+02 1.500000000000000000e+01
1.510000000000000000e+02 1.500000000000000000e+01
1.520000000000000000e+02 1.500000000000000000e+01
3.100000000000000000e+02 1.500000000000000000e+01
3.110000000000000000e+02 1.500000000000000000e+01
3.120000000000000000e+02 1.500000000000000000e+01
3.130000000000000000e+02 1.500000000000000000e+01
3.190000000000000000e+02 1.500000000000000000e+01
3.200000000000000000e+02 1.500000000000000000e+01
3.210000000000000000e+02 1.500000000000000000e+01
4.870000000000000000e+02 1.500000000000000000e+01
4.880000000000000000e+02 1.500000000000000000e+01
4.890000000000000000e+02 1.500000000000000000e+01
4.950000000000000000e+02 1.500000000000000000e+01
4.960000000000000000e+02 1.500000000000000000e+01
4.970000000000000000e+02 1.500000000000000000e+01
6.640000000000000000e+02 1.500000000000000000e+01
6.650000000000000000e+02 1.500000000000000000e+01
6.660000000000000000e+02 1.500000000000000000e+01
6.720000000000000000e+02 1.500000000000000000e+01
6.730000000000000000e+02 1.500000000000000000e+01
6.740000000000000000e+02 1.500000000000000000e+01
8.370000000000000000e+02 1.500000000000000000e+01
8.380000000000000000e+02 1.500000000000000000e+01
8.390000000000000000e+02 1.500000000000000000e+01
8.460000000000000000e+02 1.500000000000000000e+01
8.470000000000000000e+02 1.500000000000000000e+01
8.480000000000000000e+02 1.500000000000000000e+01
1.000000000000000000e+01 1.600000000000000000e+01
1.100000000000000000e+01 1.600000000000000000e+01
1.200000000000000000e+01 1.600000000000000000e+01
1.420000000000000000e+02 1.600000000000000000e+01
1.430000000000000000e+02 1.600000000000000000e+01
1.440000000000000000e+02 1.600000000000000000e+01
1.500000000000000000e+02 1.600000000000000000e+01
1.510000000000000000e+02 1.600000000000000000e+01
1.520000000000000000e+02 1.600000000000000000e+01
3.110000000000000000e+02 1.600000000000000000e+01
3.120000000000000000e+02 1.600000000000000000e+01
3.130000000000000000e+02 1.600000000000000000e+01
3.190000000000000000e+02 1.600000000000000000e+01
3.200000000000000000e+02 1.600000000000000000e+01
3.210000000000000000e+02 1.600000000000000000e+01
4.870000000000000000e+02 1.600000000000000000e+01
4.880000000000000000e+02 1.600000000000000000e+01
4.890000000000000000e+02 1.600000000000000000e+01
4.950000000000000000e+02 1.600000000000000000e+01
4.960000000000000000e+02 1.600000000000000000e+01
4.970000000000000000e+02 1.600000000000000000e+01
6.640000000000000000e+02 1.600000000000000000e+01
6.650000000000000000e+02 1.600000000000000000e+01
6.660000000000000000e+02 1.600000000000000000e+01
6.720000000000000000e+02 1.600000000000000000e+01
6.730000000000000000e+02 1.600000000000000000e+01
6.740000000000000000e+02 1.600000000000000000e+01
8.370000000000000000e+02 1.600000000000000000e+01
8.380000000000000000e+02 1.600000000000000000e+01
8.390000000000000000e+02 1.600000000000000000e+01
8.460000000000000000e+02 1.600000000000000000e+01
8.470000000000000000e+02 1.600000000000000000e+01
8.480000000000000000e+02 1.600000000000000000e+01
1.000000000000000000e+01 1.700000000000000000e+01
1.100000000000000000e+01 1.700000000000000000e+01
1.200000000000000000e+01 1.700000000000000000e+01
1.420000000000000000e+02 1.700000000000000000e+01
1.430000000000000000e+02 1.700000000000000000e+01
1.440000000000000000e+02 1.700000000000000000e+01
1.500000000000000000e+02 1.700000000000000000e+01
1.510000000000000000e+02 1.700000000000000000e+01
1.520000000000000000e+02 1.700000000000000000e+01
3.110000000000000000e+02 1.700000000000000000e+01
3.120000000000000000e+02 1.700000000000000000e+01
3.130000000000000000e+02 1.700000000000000000e+01
3.190000000000000000e+02 1.700000000000000000e+01
3.200000000000000000e+02 1.700000000000000000e+01
3.210000000000000000e+02 1.700000000000000000e+01
4.870000000000000000e+02 1.700000000000000000e+01
4.880000000000000000e+02 1.700000000000000000e+01
4.890000000000000000e+02 1.700000000000000000e+01
4.950000000000000000e+02 1.700000000000000000e+01
4.960000000000000000e+02 1.700000000000000000e+01
4.970000000000000000e+02 1.700000000000000000e+01
6.640000000000000000e+02 1.700000000000000000e+01
6.650000000000000000e+02 1.700000000000000000e+01
6.660000000000000000e+02 1.700000000000000000e+01
6.720000000000000000e+02 1.700000000000000000e+01
6.730000000000000000e+02 1.700000000000000000e+01
6.740000000000000000e+02 1.700000000000000000e+01
8.370000000000000000e+02 1.700000000000000000e+01
8.380000000000000000e+02 1.700000000000000000e+01
8.390000000000000000e+02 1.700000000000000000e+01
8.400000000000000000e+02 1.700000000000000000e+01
8.450000000000000000e+02 1.700000000000000000e+01
8.460000000000000000e+02 1.700000000000000000e+01
8.470000000000000000e+02 1.700000000000000000e+01
8.480000000000000000e+02 1.700000000000000000e+01
1.000000000000000000e+01 1.800000000000000000e+01
1.100000000000000000e+01 1.800000000000000000e+01
1.200000000000000000e+01 1.800000000000000000e+01
1.420000000000000000e+02 1.800000000000000000e+01
1.430000000000000000e+02 1.800000000000000000e+01
1.440000000000000000e+02 1.800000000000000000e+01
1.500000000000000000e+02 1.800000000000000000e+01
1.510000000000000000e+02 1.800000000000000000e+01
1.520000000000000000e+02 1.800000000000000000e+01
3.110000000000000000e+02 1.800000000000000000e+01
3.120000000000000000e+02 1.800000000000000000e+01
3.130000000000000000e+02 1.800000000000000000e+01
3.190000000000000000e+02 1.800000000000000000e+01
3.200000000000000000e+02 1.800000000000000000e+01
3.210000000000000000e+02 1.800000000000000000e+01
4.870000000000000000e+02 1.800000000000000000e+01
4.880000000000000000e+02 1.800000000000000000e+01
4.890000000000000000e+02 1.800000000000000000e+01
4.950000000000000000e+02 1.800000000000000000e+01
4.960000000000000000e+02 1.800000000000000000e+01
4.970000000000000000e+02 1.800000000000000000e+01
6.640000000000000000e+02 1.800000000000000000e+01
6.650000000000000000e+02 1.800000000000000000e+01
6.660000000000000000e+02 1.800000000000000000e+01
6.720000000000000000e+02 1.800000000000000000e+01
6.730000000000000000e+02 1.800000000000000000e+01
6.740000000000000000e+02 1.800000000000000000e+01
8.370000000000000000e+02 1.800000000000000000e+01
8.380000000000000000e+02 1.800000000000000000e+01
8.390000000000000000e+02 1.800000000000000000e+01
8.400000000000000000e+02 1.800000000000000000e+01
8.450000000000000000e+02 1.800000000000000000e+01
8.460000000000000000e+02 1.800000000000000000e+01
8.470000000000000000e+02 1.800000000000000000e+01
8.480000000000000000e+02 1.800000000000000000e+01
1.000000000000000000e+01 1.900000000000000000e+01
1.100000000000000000e+01 1.900000000000000000e+01
1.200000000000000000e+01 1.900000000000000000e+01
1.420000000000000000e+02 1.900000000000000000e+01
1.430000000000000000e+02 1.900000000000000000e+01
1.440000000000000000e+02 1.900000000000000000e+01
1.500000000000000000e+02 1.900000000000000000e+01
1.510000000000000000e+02 1.900000000000000000e+01
1.520000000000000000e+02 1.900000000000000000e+01
3.110000000000000000e+02 1.900000000000000000e+01
3.120000000000000000e+02 1.900000000000000000e+01
3.130000000000000000e+02 1.900000000000000000e+01
3.190000000000000000e+02 1.900000000000000000e+01
3.200000000000000000e+02 1.900000000000000000e+01
3.210000000000000000e+02 1.900000000000000000e+01
4.870000000000000000e+02 1.900000000000000000e+01
4.880000000000000000e+02 1.900000000000000000e+01
4.890000000000000000e+02 1.900000000000000000e+01
4.950000000000000000e+02 1.900000000000000000e+01
4.960000000000000000e+02 1.900000000000000000e+01
4.970000000000000000e+02 1.900000000000000000e+01
6.640000000000000000e+02 1.900000000000000000e+01
6.650000000000000000e+02 1.900000000000000000e+01
6.660000000000000000e+02 1.900000000000000000e+01
6.720000000000000000e+02 1.900000000000000000e+01
6.730000000000000000e+02 1.900000000000000000e+01
6.740000000000000000e+02 1.900000000000000000e+01
8.370000000000000000e+02 1.900000000000000000e+01
8.380000000000000000e+02 1.900000000000000000e+01
8.390000000000000000e+02 1.900000000000000000e+01
8.400000000000000000e+02 1.900000000000000000e+01
8.450000000000000000e+02 1.900000000000000000e+01
8.460000000000000000e+02 1.900000000000000000e+01
8.470000000000000000e+02 1.900000000000000000e+01
8.480000000000000000e+02 1.900000000000000000e+01
1.000000000000000000e+01 2.000000000000000000e+01
1.100000000000000000e+01 2.000000000000000000e+01
1.200000000000000000e+01 2.000000000000000000e+01
1.420000000000000000e+02 2.000000000000000000e+01
1.430000000000000000e+02 2.000000000000000000e+01
1.440000000000000000e+02 2.000000000000000000e+01
1.500000000000000000e+02 2.000000000000000000e+01
1.510000000000000000e+02 2.000000000000000000e+01
1.520000000000000000e+02 2.000000000000000000e+01
3.110000000000000000e+02 2.000000000000000000e+01
3.120000000000000000e+02 2.000000000000000000e+01
3.130000000000000000e+02 2.000000000000000000e+01
3.190000000000000000e+02 2.000000000000000000e+01
3.200000000000000000e+02 2.000000000000000000e+01
3.210000000000000000e+02 2.000000000000000000e+01
4.870000000000000000e+02 2.000000000000000000e+01
4.880000000000000000e+02 2.000000000000000000e+01
4.890000000000000000e+02 2.000000000000000000e+01
4.900000000000000000e+02 2.000000000000000000e+01
4.950000000000000000e+02 2.000000000000000000e+01
4.960000000000000000e+02 2.000000000000000000e+01
4.970000000000000000e+02 2.000000000000000000e+01
6.640000000000000000e+02 2.000000000000000000e+01
6.650000000000000000e+02 2.000000000000000000e+01
6.660000000000000000e+02 2.000000000000000000e+01
6.720000000000000000e+02 2.000000000000000000e+01
6.730000000000000000e+02 2.000000000000000000e+01
6.740000000000000000e+02 2.000000000000000000e+01
8.370000000000000000e+02 2.000000000000000000e+01
8.380000000000000000e+02 2.000000000000000000e+01
8.390000000000000000e+02 2.000000000000000000e+01
8.400000000000000000e+02 2.000000000000000000e+01
8.450000000000000000e+02 2.000000000000000000e+01
8.460000000000000000e+02 2.000000000000000000e+01
8.470000000000000000e+02 2.000000000000000000e+01
8.480000000000000000e+02 2.000000000000000000e+01
1.000000000000000000e+01 2.100000000000000000e+01
1.100000000000000000e+01 2.100000000000000000e+01
1.200000000000000000e+01 2.100000000000000000e+01
1.420000000000000000e+02 2.100000000000000000e+01
1.430000000000000000e+02 2.100000000000000000e+01
1.440000000000000000e+02 2.100000000000000000e+01
1.450000000000000000e+02 2.100000000000000000e+01
1.500000000000000000e+02 2.100000000000000000e+01
1.510000000000000000e+02 2.100000000000000000e+01
1.520000000000000000e+02 2.100000000000000000e+01
3.110000000000000000e+02 2.100000000000000000e+01
3.120000000000000000e+02 2.100000000000000000e+01
3.130000000000000000e+02 2.100000000000000000e+01
3.190000000000000000e+02 2.100000000000000000e+01
3.200000000000000000e+02 2.100000000000000000e+01
3.210000000000000000e+02 2.100000000000000000e+01
4.870000000000000000e+02 2.100000000000000000e+01
4.880000000000000000e+02 2.100000000000000000e+01
4.890000000000000000e+02 2.100000000000000000e+01
4.900000000000000000e+02 2.100000000000000000e+01
4.950000000000000000e+02 2.100000000000000000e+01
4.960000000000000000e+02 2.100000000000000000e+01
4.970000000000000000e+02 2.100000000000000000e+01
6.640000000000000000e+02 2.100000000000000000e+01
6.650000000000000000e+02 2.100000000000000000e+01
6.660000000000000000e+02 2.100000000000000000e+01
6.670000000000000000e+02 2.100000000000000000e+01
6.720000000000000000e+02 2.100000000000000000e+01
6.730000000000000000e+02 2.100000000000000000e+01
6.740000000000000000e+02 2.100000000000000000e+01
8.370000000000000000e+02 2.100000000000000000e+01
8.380000000000000000e+02 2.100000000000000000e+01
8.390000000000000000e+02 2.100000000000000000e+01
8.400000000000000000e+02 2.100000000000000000e+01
8.450000000000000000e+02 2.100000000000000000e+01
8.460000000000000000e+02 2.100000000000000000e+01
8.470000000000000000e+02 2.100000000000000000e+01
1.000000000000000000e+01 2.200000000000000000e+01
1.100000000000000000e+01 2.200000000000000000e+01
1.200000000000000000e+01 2.200000000000000000e+01
1.420000000000000000e+02 2.200000000000000000e+01
1.430000000000000000e+02 2.200000000000000000e+01
1.440000000000000000e+02 2.200000000000000000e+01
1.450000000000000000e+02 2.200000000000000000e+01
1.490000000000000000e+02 2.200000000000000000e+01
1.500000000000000000e+02 2.200000000000000000e+01
1.510000000000000000e+02 2.200000000000000000e+01
1.520000000000000000e+02 2.200000000000000000e+01
3.110000000000000000e+02 2.200000000000000000e+01
3.120000000000000000e+02 2.200000000000000000e+01
3.130000000000000000e+02 2.200000000000000000e+01
3.140000000000000000e+02 2.200000000000000000e+01
3.190000000000000000e+02 2.200000000000000000e+01
3.200000000000000000e+02 2.200000000000000000e+01
3.210000000000000000e+02 2.200000000000000000e+01
4.870000000000000000e+02 2.200000000000000000e+01
4.880000000000000000e+02 2.200000000000000000e+01
4.890000000000000000e+02 2.200000000000000000e+01
4.900000000000000000e+02 2.200000000000000000e+01
4.910000000000000000e+02 2.200000000000000000e+01
4.950000000000000000e+02 2.200000000000000000e+01
4.960000000000000000e+02 2.200000000000000000e+01
4.970000000000000000e+02 2.200000000000000000e+01
6.640000000000000000e+02 2.200000000000000000e+01
6.650000000000000000e+02 2.200000000000000000e+01
6.660000000000000000e+02 2.200000000000000000e+01
6.670000000000000000e+02 2.200000000000000000e+01
6.720000000000000000e+02 2.200000000000000000e+01
6.730000000000000000e+02 2.200000000000000000e+01
6.740000000000000000e+02 2.200000000000000000e+01
8.370000000000000000e+02 2.200000000000000000e+01
8.380000000000000000e+02 2.200000000000000000e+01
8.390000000000000000e+02 2.200000000000000000e+01
8.400000000000000000e+02 2.200000000000000000e+01
8.450000000000000000e+02 2.200000000000000000e+01
8.460000000000000000e+02 2.200000000000000000e+01
8.470000000000000000e+02 2.200000000000000000e+01
1.000000000000000000e+01 2.300000000000000000e+01
1.100000000000000000e+01 2.300000000000000000e+01
1.200000000000000000e+01 2.300000000000000000e+01
1.430000000000000000e+02 2.300000000000000000e+01
1.440000000000000000e+02 2.300000000000000000e+01
1.450000000000000000e+02 2.300000000000000000e+01
1.490000000000000000e+02 2.300000000000000000e+01
1.500000000000000000e+02 2.300000000000000000e+01
1.510000000000000000e+02 2.300000000000000000e+01
1.520000000000000000e+02 2.300000000000000000e+01
3.110000000000000000e+02 2.300000000000000000e+01
3.120000000000000000e+02 2.300000000000000000e+01
3.130000000000000000e+02 2.300000000000000000e+01
3.140000000000000000e+02 2.300000000000000000e+01
3.190000000000000000e+02 2.300000000000000000e+01
3.200000000000000000e+02 2.300000000000000000e+01
3.210000000000000000e+02 2.300000000000000000e+01
4.880000000000000000e+02 2.300000000000000000e+01
4.890000000000000000e+02 2.300000000000000000e+01
4.900000000000000000e+02 2.300000000000000000e+01
4.910000000000000000e+02 2.300000000000000000e+01
4.940000000000000000e+02 2.300000000000000000e+01
4.950000000000000000e+02 2.300000000000000000e+01
4.960000000000000000e+02 2.300000000000000000e+01
4.970000000000000000e+02 2.300000000000000000e+01
6.640000000000000000e+02 2.300000000000000000e+01
6.650000000000000000e+02 2.300000000000000000e+01
6.660000000000000000e+02 2.300000000000000000e+01
6.670000000000000000e+02 2.300000000000000000e+01
6.720000000000000000e+02 2.300000000000000000e+01
6.730000000000000000e+02 2.300000000000000000e+01
6.740000000000000000e+02 2.300000000000000000e+01
8.370000000000000000e+02 2.300000000000000000e+01
8.380000000000000000e+02 2.300000000000000000e+01
8.390000000000000000e+02 2.300000000000000000e+01
8.400000000000000000e+02 2.300000000000000000e+01
8.450000000000000000e+02 2.300000000000000000e+01
8.460000000000000000e+02 2.300000000000000000e+01
8.470000000000000000e+02 2.300000000000000000e+01
1.000000000000000000e+01 2.400000000000000000e+01
1.100000000000000000e+01 2.400000000000000000e+01
1.200000000000000000e+01 2.400000000000000000e+01
1.430000000000000000e+02 2.400000000000000000e+01
1.440000000000000000e+02 2.400000000000000000e+01
1.450000000000000000e+02 2.400000000000000000e+01
1.490000000000000000e+02 2.400000000000000000e+01
1.500000000000000000e+02 2.400000000000000000e+01
1.510000000000000000e+02 2.400000000000000000e+01
1.520000000000000000e+02 2.400000000000000000e+01
3.120000000000000000e+02 2.400000000000000000e+01
3.130000000000000000e+02 2.400000000000000000e+01
3.140000000000000000e+02 2.400000000000000000e+01
3.190000000000000000e+02 2.400000000000000000e+01
3.200000000000000000e+02 2.400000000000000000e+01
3.210000000000000000e+02 2.400000000000000000e+01
4.890000000000000000e+02 2.400000000000000000e+01
4.900000000000000000e+02 2.400000000000000000e+01
4.910000000000000000e+02 2.400000000000000000e+01
4.940000000000000000e+02 2.400000000000000000e+01
4.950000000000000000e+02 2.400000000000000000e+01
4.960000000000000000e+02 2.400000000000000000e+01
4.970000000000000000e+02 2.400000000000000000e+01
6.650000000000000000e+02 2.400000000000000000e+01
6.660000000000000000e+02 2.400000000000000000e+01
6.670000000000000000e+02 2.400000000000000000e+01
6.680000000000000000e+02 2.400000000000000000e+01
6.720000000000000000e+02 2.400000000000000000e+01
6.730000000000000000e+02 2.400000000000000000e+01
6.740000000000000000e+02 2.400000000000000000e+01
8.380000000000000000e+02 2.400000000000000000e+01
8.390000000000000000e+02 2.400000000000000000e+01
8.400000000000000000e+02 2.400000000000000000e+01
8.450000000000000000e+02 2.400000000000000000e+01
8.460000000000000000e+02 2.400000000000000000e+01
8.470000000000000000e+02 2.400000000000000000e+01
1.000000000000000000e+01 2.500000000000000000e+01
1.100000000000000000e+01 2.500000000000000000e+01
1.200000000000000000e+01 2.500000000000000000e+01
1.430000000000000000e+02 2.500000000000000000e+01
1.440000000000000000e+02 2.500000000000000000e+01
1.450000000000000000e+02 2.500000000000000000e+01
1.490000000000000000e+02 2.500000000000000000e+01
1.500000000000000000e+02 2.500000000000000000e+01
1.510000000000000000e+02 2.500000000000000000e+01
1.520000000000000000e+02 2.500000000000000000e+01
3.120000000000000000e+02 2.500000000000000000e+01
3.130000000000000000e+02 2.500000000000000000e+01
3.140000000000000000e+02 2.500000000000000000e+01
3.150000000000000000e+02 2.500000000000000000e+01
3.180000000000000000e+02 2.500000000000000000e+01
3.190000000000000000e+02 2.500000000000000000e+01
3.200000000000000000e+02 2.500000000000000000e+01
3.210000000000000000e+02 2.500000000000000000e+01
4.890000000000000000e+02 2.500000000000000000e+01
4.900000000000000000e+02 2.500000000000000000e+01
4.910000000000000000e+02 2.500000000000000000e+01
4.940000000000000000e+02 2.500000000000000000e+01
4.950000000000000000e+02 2.500000000000000000e+01
4.960000000000000000e+02 2.500000000000000000e+01
4.970000000000000000e+02 2.500000000000000000e+01
6.650000000000000000e+02 2.500000000000000000e+01
6.660000000000000000e+02 2.500000000000000000e+01
6.670000000000000000e+02 2.500000000000000000e+01
6.680000000000000000e+02 2.500000000000000000e+01
6.710000000000000000e+02 2.500000000000000000e+01
6.720000000000000000e+02 2.500000000000000000e+01
6.730000000000000000e+02 2.500000000000000000e+01
6.740000000000000000e+02 2.500000000000000000e+01
8.380000000000000000e+02 2.500000000000000000e+01
8.390000000000000000e+02 2.500000000000000000e+01
8.400000000000000000e+02 2.500000000000000000e+01
8.450000000000000000e+02 2.500000000000000000e+01
8.460000000000000000e+02 2.500000000000000000e+01
8.470000000000000000e+02 2.500000000000000000e+01
1.000000000000000000e+01 2.600000000000000000e+01
1.100000000000000000e+01 2.600000000000000000e+01
1.200000000000000000e+01 2.600000000000000000e+01
1.430000000000000000e+02 2.600000000000000000e+01
1.440000000000000000e+02 2.600000000000000000e+01
1.450000000000000000e+02 2.600000000000000000e+01
1.490000000000000000e+02 2.600000000000000000e+01
1.500000000000000000e+02 2.600000000000000000e+01
1.510000000000000000e+02 2.600000000000000000e+01
1.520000000000000000e+02 2.600000000000000000e+01
3.120000000000000000e+02 2.600000000000000000e+01
3.130000000000000000e+02 2.600000000000000000e+01
3.140000000000000000e+02 2.600000000000000000e+01
3.150000000000000000e+02 2.600000000000000000e+01
3.180000000000000000e+02 2.600000000000000000e+01
3.190000000000000000e+02 2.600000000000000000e+01
3.200000000000000000e+02 2.600000000000000000e+01
3.210000000000000000e+02 2.600000000000000000e+01
4.890000000000000000e+02 2.600000000000000000e+01
4.900000000000000000e+02 2.600000000000000000e+01
4.910000000000000000e+02 2.600000000000000000e+01
4.940000000000000000e+02 2.600000000000000000e+01
4.950000000000000000e+02 2.600000000000000000e+01
4.960000000000000000e+02 2.600000000000000000e+01
4.970000000000000000e+02 2.600000000000000000e+01
6.660000000000000000e+02 2.600000000000000000e+01
6.670000000000000000e+02 2.600000000000000000e+01
6.680000000000000000e+02 2.600000000000000000e+01
6.710000000000000000e+02 2.600000000000000000e+01
6.720000000000000000e+02 2.600000000000000000e+01
6.730000000000000000e+02 2.600000000000000000e+01
6.740000000000000000e+02 2.600000000000000000e+01
8.380000000000000000e+02 2.600000000000000000e+01
8.390000000000000000e+02 2.600000000000000000e+01
8.400000000000000000e+02 2.600000000000000000e+01
8.450000000000000000e+02 2.600000000000000000e+01
8.460000000000000000e+02 2.600000000000000000e+01
8.470000000000000000e+02 2.600000000000000000e+01
1.000000000000000000e+01 2.700000000000000000e+01
1.100000000000000000e+01 2.700000000000000000e+01
1.200000000000000000e+01 2.700000000000000000e+01
1.430000000000000000e+02 2.700000000000000000e+01
1.440000000000000000e+02 2.700000000000000000e+01
1.450000000000000000e+02 2.700000000000000000e+01
1.460000000000000000e+02 2.700000000000000000e+01
1.490000000000000000e+02 2.700000000000000000e+01
1.500000000000000000e+02 2.700000000000000000e+01
1.510000000000000000e+02 2.700000000000000000e+01
3.120000000000000000e+02 2.700000000000000000e+01
3.130000000000000000e+02 2.700000000000000000e+01
3.140000000000000000e+02 2.700000000000000000e+01
3.150000000000000000e+02 2.700000000000000000e+01
3.180000000000000000e+02 2.700000000000000000e+01
3.190000000000000000e+02 2.700000000000000000e+01
3.200000000000000000e+02 2.700000000000000000e+01
4.890000000000000000e+02 2.700000000000000000e+01
4.900000000000000000e+02 2.700000000000000000e+01
4.910000000000000000e+02 2.700000000000000000e+01
4.940000000000000000e+02 2.700000000000000000e+01
4.950000000000000000e+02 2.700000000000000000e+01
4.960000000000000000e+02 2.700000000000000000e+01
6.660000000000000000e+02 2.700000000000000000e+01
6.670000000000000000e+02 2.700000000000000000e+01
6.680000000000000000e+02 2.700000000000000000e+01
6.710000000000000000e+02 2.700000000000000000e+01
6.720000000000000000e+02 2.700000000000000000e+01
6.730000000000000000e+02 2.700000000000000000e+01
6.740000000000000000e+02 2.700000000000000000e+01
8.380000000000000000e+02 2.700000000000000000e+01
8.390000000000000000e+02 2.700000000000000000e+01
8.400000000000000000e+02 2.700000000000000000e+01
8.450000000000000000e+02 2.700000000000000000e+01
8.460000000000000000e+02 2.700000000000000000e+01
8.470000000000000000e+02 2.700000000000000000e+01
1.000000000000000000e+01 2.800000000000000000e+01
1.100000000000000000e+01 2.800000000000000000e+01
1.200000000000000000e+01 2.800000000000000000e+01
1.430000000000000000e+02 2.800000000000000000e+01
1.440000000000000000e+02 2.800000000000000000e+01
1.450000000000000000e+02 2.800000000000000000e+01
1.460000000000000000e+02 2.800000000000000000e+01
1.490000000000000000e+02 2.800000000000000000e+01
1.500000000000000000e+02 2.800000000000000000e+01
1.510000000000000000e+02 2.800000000000000000e+01
3.130000000000000000e+02 2.800000000000000000e+01
3.140000000000000000e+02 2.800000000000000000e+01
3.150000000000000000e+02 2.800000000000000000e+01
3.180000000000000000e+02 2.800000000000000000e+01
3.190000000000000000e+02 2.800000000000000000e+01
3.200000000000000000e+02 2.800000000000000000e+01
4.890000000000000000e+02 2.800000000000000000e+01
4.900000000000000000e+02 2.800000000000000000e+01
4.910000000000000000e+02 2.800000000000000000e+01
4.940000000000000000e+02 2.800000000000000000e+01
4.950000000000000000e+02 2.800000000000000000e+01
4.960000000000000000e+02 2.800000000000000000e+01
6.660000000000000000e+02 2.800000000000000000e+01
6.670000000000000000e+02 2.800000000000000000e+01
6.680000000000000000e+02 2.800000000000000000e+01
6.710000000000000000e+02 2.800000000000000000e+01
6.720000000000000000e+02 2.800000000000000000e+01
6.730000000000000000e+02 2.800000000000000000e+01
6.740000000000000000e+02 2.800000000000000000e+01
8.380000000000000000e+02 2.800000000000000000e+01
8.390000000000000000e+02 2.800000000000000000e+01
8.400000000000000000e+02 2.800000000000000000e+01
8.410000000000000000e+02 2.800000000000000000e+01
8.450000000000000000e+02 2.800000000000000000e+01
8.460000000000000000e+02 2.800000000000000000e+01
8.470000000000000000e+02 2.800000000000000000e+01
1.000000000000000000e+01 2.900000000000000000e+01
1.100000000000000000e+01 2.900000000000000000e+01
1.200000000000000000e+01 2.900000000000000000e+01
1.430000000000000000e+02 2.900000000000000000e+01
1.440000000000000000e+02 2.900000000000000000e+01
1.450000000000000000e+02 2.900000000000000000e+01
1.460000000000000000e+02 2.900000000000000000e+01
1.490000000000000000e+02 2.900000000000000000e+01
1.500000000000000000e+02 2.900000000000000000e+01
1.510000000000000000e+02 2.900000000000000000e+01
3.130000000000000000e+02 2.900000000000000000e+01
3.140000000000000000e+02 2.900000000000000000e+01
3.150000000000000000e+02 2.900000000000000000e+01
3.180000000000000000e+02 2.900000000000000000e+01
3.190000000000000000e+02 2.900000000000000000e+01
3.200000000000000000e+02 2.900000000000000000e+01
4.890000000000000000e+02 2.900000000000000000e+01
4.900000000000000000e+02 2.900000000000000000e+01
4.910000000000000000e+02 2.900000000000000000e+01
4.940000000000000000e+02 2.900000000000000000e+01
4.950000000000000000e+02 2.900000000000000000e+01
4.960000000000000000e+02 2.900000000000000000e+01
6.660000000000000000e+02 2.900000000000000000e+01
6.670000000000000000e+02 2.900000000000000000e+01
6.680000000000000000e+02 2.900000000000000000e+01
6.710000000000000000e+02 2.900000000000000000e+01
6.720000000000000000e+02 2.900000000000000000e+01
6.730000000000000000e+02 2.900000000000000000e+01
8.380000000000000000e+02 2.900000000000000000e+01
8.390000000000000000e+02 2.900000000000000000e+01
8.400000000000000000e+02 2.900000000000000000e+01
8.410000000000000000e+02 2.900000000000000000e+01
8.450000000000000000e+02 2.900000000000000000e+01
8.460000000000000000e+02 2.900000000000000000e+01
8.470000000000000000e+02 2.900000000000000000e+01
1.000000000000000000e+01 3.000000000000000000e+01
1.100000000000000000e+01 3.000000000000000000e+01
1.200000000000000000e+01 3.000000000000000000e+01
1.430000000000000000e+02 3.000000000000000000e+01
1.440000000000000000e+02 3.000000000000000000e+01
1.450000000000000000e+02 3.000000000000000000e+01
1.460000000000000000e+02 3.000000000000000000e+01
1.490000000000000000e+02 3.000000000000000000e+01
1.500000000000000000e+02 3.000000000000000000e+01
1.510000000000000000e+02 3.000000000000000000e+01
3.130000000000000000e+02 3.000000000000000000e+01
3.140000000000000000e+02 3.000000000000000000e+01
3.150000000000000000e+02 3.000000000000000000e+01
3.180000000000000000e+02 3.000000000000000000e+01
3.190000000000000000e+02 3.000000000000000000e+01
3.200000000000000000e+02 3.000000000000000000e+01
4.890000000000000000e+02 3.000000000000000000e+01
4.900000000000000000e+02 3.000000000000000000e+01
4.910000000000000000e+02 3.000000000000000000e+01
4.920000000000000000e+02 3.000000000000000000e+01
4.940000000000000000e+02 3.000000000000000000e+01
4.950000000000000000e+02 3.000000000000000000e+01
4.960000000000000000e+02 3.000000000000000000e+01
6.660000000000000000e+02 3.000000000000000000e+01
6.670000000000000000e+02 3.000000000000000000e+01
6.680000000000000000e+02 3.000000000000000000e+01
6.710000000000000000e+02 3.000000000000000000e+01
6.720000000000000000e+02 3.000000000000000000e+01
6.730000000000000000e+02 3.000000000000000000e+01
8.390000000000000000e+02 3.000000000000000000e+01
8.400000000000000000e+02 3.000000000000000000e+01
8.410000000000000000e+02 3.000000000000000000e+01
8.440000000000000000e+02 3.000000000000000000e+01
8.450000000000000000e+02 3.000000000000000000e+01
8.460000000000000000e+02 3.000000000000000000e+01
8.470000000000000000e+02 3.000000000000000000e+01
1.000000000000000000e+01 3.100000000000000000e+01
1.100000000000000000e+01 3.100000000000000000e+01
1.200000000000000000e+01 3.100000000000000000e+01
1.440000000000000000e+02 3.100000000000000000e+01
1.450000000000000000e+02 3.100000000000000000e+01
1.460000000000000000e+02 3.100000000000000000e+01
1.490000000000000000e+02 3.100000000000000000e+01
1.500000000000000000e+02 3.100000000000000000e+01
1.510000000000000000e+02 3.100000000000000000e+01
3.130000000000000000e+02 3.100000000000000000e+01
3.140000000000000000e+02 3.100000000000000000e+01
3.150000000000000000e+02 3.100000000000000000e+01
3.180000000000000000e+02 3.100000000000000000e+01
3.190000000000000000e+02 3.100000000000000000e+01
3.200000000000000000e+02 3.100000000000000000e+01
4.890000000000000000e+02 3.100000000000000000e+01
4.900000000000000000e+02 3.100000000000000000e+01
4.910000000000000000e+02 3.100000000000000000e+01
4.920000000000000000e+02 3.100000000000000000e+01
4.940000000000000000e+02 3.100000000000000000e+01
4.950000000000000000e+02 3.100000000000000000e+01
4.960000000000000000e+02 3.100000000000000000e+01
6.660000000000000000e+02 3.100000000000000000e+01
6.670000000000000000e+02 3.100000000000000000e+01
6.680000000000000000e+02 3.100000000000000000e+01
6.710000000000000000e+02 3.100000000000000000e+01
6.720000000000000000e+02 3.100000000000000000e+01
6.730000000000000000e+02 3.100000000000000000e+01
8.390000000000000000e+02 3.100000000000000000e+01
8.400000000000000000e+02 3.100000000000000000e+01
8.410000000000000000e+02 3.100000000000000000e+01
8.440000000000000000e+02 3.100000000000000000e+01
8.450000000000000000e+02 3.100000000000000000e+01
8.460000000000000000e+02 3.100000000000000000e+01
8.470000000000000000e+02 3.100000000000000000e+01
1.000000000000000000e+01 3.200000000000000000e+01
1.100000000000000000e+01 3.200000000000000000e+01
1.200000000000000000e+01 3.200000000000000000e+01
1.440000000000000000e+02 3.200000000000000000e+01
1.450000000000000000e+02 3.200000000000000000e+01
1.460000000000000000e+02 3.200000000000000000e+01
1.490000000000000000e+02 3.200000000000000000e+01
1.500000000000000000e+02 3.200000000000000000e+01
1.510000000000000000e+02 3.200000000000000000e+01
3.130000000000000000e+02 3.200000000000000000e+01
3.140000000000000000e+02 3.200000000000000000e+01
3.150000000000000000e+02 3.200000000000000000e+01
3.180000000000000000e+02 3.200000000000000000e+01
3.190000000000000000e+02 3.200000000000000000e+01
3.200000000000000000e+02 3.200000000000000000e+01
4.890000000000000000e+02 3.200000000000000000e+01
4.900000000000000000e+02 3.200000000000000000e+01
4.910000000000000000e+02 3.200000000000000000e+01
4.920000000000000000e+02 3.200000000000000000e+01
4.940000000000000000e+02 3.200000000000000000e+01
4.950000000000000000e+02 3.200000000000000000e+01
4.960000000000000000e+02 3.200000000000000000e+01
6.660000000000000000e+02 3.200000000000000000e+01
6.670000000000000000e+02 3.200000000000000000e+01
6.680000000000000000e+02 3.200000000000000000e+01
6.710000000000000000e+02 3.200000000000000000e+01
6.720000000000000000e+02 3.200000000000000000e+01
6.730000000000000000e+02 3.200000000000000000e+01
8.390000000000000000e+02 3.200000000000000000e+01
8.400000000000000000e+02 3.200000000000000000e+01
8.410000000000000000e+02 3.200000000000000000e+01
8.440000000000000000e+02 3.200000000000000000e+01
8.450000000000000000e+02 3.200000000000000000e+01
8.460000000000000000e+02 3.200000000000000000e+01
8.470000000000000000e+02 3.200000000000000000e+01
1.000000000000000000e+01 3.300000000000000000e+01
1.100000000000000000e+01 3.300000000000000000e+01
1.200000000000000000e+01 3.300000000000000000e+01
1.440000000000000000e+02 3.300000000000000000e+01
1.450000000000000000e+02 3.300000000000000000e+01
1.460000000000000000e+02 3.300000000000000000e+01
1.480000000000000000e+02 3.300000000000000000e+01
1.490000000000000000e+02 3.300000000000000000e+01
1.500000000000000000e+02 3.300000000000000000e+01
1.510000000000000000e+02 3.300000000000000000e+01
3.130000000000000000e+02 3.300000000000000000e+01
3.140000000000000000e+02 3.300000000000000000e+01
3.150000000000000000e+02 3.300000000000000000e+01
3.160000000000000000e+02 3.300000000000000000e+01
3.180000000000000000e+02 3.300000000000000000e+01
3.190000000000000000e+02 3.300000000000000000e+01
3.200000000000000000e+02 3.300000000000000000e+01
4.890000000000000000e+02 3.300000000000000000e+01
4.900000000000000000e+02 3.300000000000000000e+01
4.910000000000000000e+02 3.300000000000000000e+01
4.920000000000000000e+02 3.300000000000000000e+01
4.940000000000000000e+02 3.300000000000000000e+01
4.950000000000000000e+02 3.300000000000000000e+01
4.960000000000000000e+02 3.300000000000000000e+01
6.660000000000000000e+02 3.300000000000000000e+01
6.670000000000000000e+02 3.300000000000000000e+01
6.680000000000000000e+02 3.300000000000000000e+01
6.690000000000000000e+02 3.300000000000000000e+01
6.710000000000000000e+02 3.300000000000000000e+01
6.720000000000000000e+02 3.300000000000000000e+01
6.730000000000000000e+02 3.300000000000000000e+01
8.390000000000000000e+02 3.300000000000000000e+01
8.400000000000000000e+02 3.300000000000000000e+01
8.410000000000000000e+02 3.300000000000000000e+01
8.440000000000000000e+02 3.300000000000000000e+01
8.450000000000000000e+02 3.300000000000000000e+01
8.460000000000000000e+02 3.300000000000000000e+01
8.470000000000000000e+02 3.300000000000000000e+01
1.000000000000000000e+01 3.400000000000000000e+01
1.100000000000000000e+01 3.400000000000000000e+01
1.200000000000000000e+01 3.400000000000000000e+01
1.440000000000000000e+02 3.400000000000000000e+01
1.450000000000000000e+02 3.400000000000000000e+01
1.460000000000000000e+02 3.400000000000000000e+01
1.480000000000000000e+02 3.400000000000000000e+01
1.490000000000000000e+02 3.400000000000000000e+01
1.500000000000000000e+02 3.400000000000000000e+01
1.510000000000000000e+02 3.400000000000000000e+01
3.130000000000000000e+02 3.400000000000000000e+01
3.140000000000000000e+02 3.400000000000000000e+01
3.150000000000000000e+02 3.400000000000000000e+01
3.160000000000000000e+02 3.400000000000000000e+01
3.170000000000000000e+02 3.400000000000000000e+01
3.180000000000000000e+02 3.400000000000000000e+01
3.190000000000000000e+02 3.400000000000000000e+01
3.200000000000000000e+02 3.400000000000000000e+01
4.900000000000000000e+02 3.400000000000000000e+01
4.910000000000000000e+02 3.400000000000000000e+01
4.920000000000000000e+02 3.400000000000000000e+01
4.930000000000000000e+02 3.400000000000000000e+01
4.940000000000000000e+02 3.400000000000000000e+01
4.950000000000000000e+02 3.400000000000000000e+01
4.960000000000000000e+02 3.400000000000000000e+01
6.660000000000000000e+02 3.400000000000000000e+01
6.670000000000000000e+02 3.400000000000000000e+01
6.680000000000000000e+02 3.400000000000000000e+01
6.690000000000000000e+02 3.400000000000000000e+01
6.710000000000000000e+02 3.400000000000000000e+01
6.720000000000000000e+02 3.400000000000000000e+01
6.730000000000000000e+02 3.400000000000000000e+01
8.390000000000000000e+02 3.400000000000000000e+01
8.400000000000000000e+02 3.400000000000000000e+01
8.410000000000000000e+02 3.400000000000000000e+01
8.420000000000000000e+02 3.400000000000000000e+01
8.440000000000000000e+02 3.400000000000000000e+01
8.450000000000000000e+02 3.400000000000000000e+01
8.460000000000000000e+02 3.400000000000000000e+01
8.470000000000000000e+02 3.400000000000000000e+01
1.000000000000000000e+01 3.500000000000000000e+01
1.100000000000000000e+01 3.500000000000000000e+01
1.200000000000000000e+01 3.500000000000000000e+01
1.440000000000000000e+02 3.500000000000000000e+01
1.450000000000000000e+02 3.500000000000000000e+01
1.460000000000000000e+02 3.500000000000000000e+01
1.480000000000000000e+02 3.500000000000000000e+01
1.490000000000000000e+02 3.500000000000000000e+01
1.500000000000000000e+02 3.500000000000000000e+01
3.130000000000000000e+02 3.500000000000000000e+01
3.140000000000000000e+02 3.500000000000000000e+01
3.150000000000000000e+02 3.500000000000000000e+01
3.160000000000000000e+02 3.500000000000000000e+01
3.170000000000000000e+02 3.500000000000000000e+01
3.180000000000000000e+02 3.500000000000000000e+01
3.190000000000000000e+02 3.500000000000000000e+01
3.200000000000000000e+02 3.500000000000000000e+01
4.900000000000000000e+02 3.500000000000000000e+01
4.910000000000000000e+02 3.500000000000000000e+01
4.920000000000000000e+02 3.500000000000000000e+01
4.930000000000000000e+02 3.500000000000000000e+01
4.940000000000000000e+02 3.500000000000000000e+01
4.950000000000000000e+02 3.500000000000000000e+01
4.960000000000000000e+02 3.500000000000000000e+01
6.660000000000000000e+02 3.500000000000000000e+01
6.670000000000000000e+02 3.500000000000000000e+01
6.680000000000000000e+02 3.500000000000000000e+01
6.690000000000000000e+02 3.500000000000000000e+01
6.710000000000000000e+02 3.500000000000000000e+01
6.720000000000000000e+02 3.500000000000000000e+01
6.730000000000000000e+02 3.500000000000000000e+01
8.390000000000000000e+02 3.500000000000000000e+01
8.400000000000000000e+02 3.500000000000000000e+01
8.410000000000000000e+02 3.500000000000000000e+01
8.420000000000000000e+02 3.500000000000000000e+01
8.440000000000000000e+02 3.500000000000000000e+01
8.450000000000000000e+02 3.500000000000000000e+01
8.460000000000000000e+02 3.500000000000000000e+01
1.000000000000000000e+01 3.600000000000000000e+01
1.100000000000000000e+01 3.600000000000000000e+01
1.200000000000000000e+01 3.600000000000000000e+01
1.440000000000000000e+02 3.600000000000000000e+01
1.450000000000000000e+02 3.600000000000000000e+01
1.460000000000000000e+02 3.600000000000000000e+01
1.480000000000000000e+02 3.600000000000000000e+01
1.490000000000000000e+02 3.600000000000000000e+01
1.500000000000000000e+02 3.600000000000000000e+01
3.140000000000000000e+02 3.600000000000000000e+01
3.150000000000000000e+02 3.600000000000000000e+01
3.160000000000000000e+02 3.600000000000000000e+01
3.170000000000000000e+02 3.600000000000000000e+01
3.180000000000000000e+02 3.600000000000000000e+01
3.190000000000000000e+02 3.600000000000000000e+01
4.900000000000000000e+02 3.600000000000000000e+01
4.910000000000000000e+02 3.600000000000000000e+01
4.920000000000000000e+02 3.600000000000000000e+01
4.930000000000000000e+02 3.600000000000000000e+01
4.940000000000000000e+02 3.600000000000000000e+01
4.950000000000000000e+02 3.600000000000000000e+01
4.960000000000000000e+02 3.600000000000000000e+01
6.670000000000000000e+02 3.600000000000000000e+01
6.680000000000000000e+02 3.600000000000000000e+01
6.690000000000000000e+02 3.600000000000000000e+01
6.710000000000000000e+02 3.600000000000000000e+01
6.720000000000000000e+02 3.600000000000000000e+01
6.730000000000000000e+02 3.600000000000000000e+01
8.390000000000000000e+02 3.600000000000000000e+01
8.400000000000000000e+02 3.600000000000000000e+01
8.410000000000000000e+02 3.600000000000000000e+01
8.420000000000000000e+02 3.600000000000000000e+01
8.440000000000000000e+02 3.600000000000000000e+01
8.450000000000000000e+02 3.600000000000000000e+01
8.460000000000000000e+02 3.600000000000000000e+01
1.000000000000000000e+01 3.700000000000000000e+01
1.100000000000000000e+01 3.700000000000000000e+01
1.200000000000000000e+01 3.700000000000000000e+01
1.440000000000000000e+02 3.700000000000000000e+01
1.450000000000000000e+02 3.700000000000000000e+01
1.460000000000000000e+02 3.700000000000000000e+01
1.470000000000000000e+02 3.700000000000000000e+01
1.480000000000000000e+02 3.700000000000000000e+01
1.490000000000000000e+02 3.700000000000000000e+01
1.500000000000000000e+02 3.700000000000000000e+01
3.140000000000000000e+02 3.700000000000000000e+01
3.150000000000000000e+02 3.700000000000000000e+01
3.160000000000000000e+02 3.700000000000000000e+01
3.170000000000000000e+02 3.700000000000000000e+01
3.180000000000000000e+02 3.700000000000000000e+01
3.190000000000000000e+02 3.700000000000000000e+01
4.900000000000000000e+02 3.700000000000000000e+01
4.910000000000000000e+02 3.700000000000000000e+01
4.920000000000000000e+02 3.700000000000000000e+01
4.930000000000000000e+02 3.700000000000000000e+01
4.940000000000000000e+02 3.700000000000000000e+01
4.950000000000000000e+02 3.700000000000000000e+01
4.960000000000000000e+02 3.700000000000000000e+01
6.670000000000000000e+02 3.700000000000000000e+01
6.680000000000000000e+02 3.700000000000000000e+01
6.690000000000000000e+02 3.700000000000000000e+01
6.700000000000000000e+02 3.700000000000000000e+01
6.710000000000000000e+02 3.700000000000000000e+01
6.720000000000000000e+02 3.700000000000000000e+01
6.730000000000000000e+02 3.700000000000000000e+01
8.400000000000000000e+02 3.700000000000000000e+01
8.410000000000000000e+02 3.700000000000000000e+01
8.420000000000000000e+02 3.700000000000000000e+01
8.440000000000000000e+02 3.700000000000000000e+01
8.450000000000000000e+02 3.700000000000000000e+01
8.460000000000000000e+02 3.700000000000000000e+01
1.000000000000000000e+01 3.800000000000000000e+01
1.100000000000000000e+01 3.800000000000000000e+01
1.200000000000000000e+01 3.800000000000000000e+01
1.440000000000000000e+02 3.800000000000000000e+01
1.450000000000000000e+02 3.800000000000000000e+01
1.460000000000000000e+02 3.800000000000000000e+01
1.470000000000000000e+02 3.800000000000000000e+01
1.480000000000000000e+02 3.800000000000000000e+01
1.490000000000000000e+02 3.800000000000000000e+01
1.500000000000000000e+02 3.800000000000000000e+01
3.140000000000000000e+02 3.800000000000000000e+01
3.150000000000000000e+02 3.800000000000000000e+01
3.160000000000000000e+02 3.800000000000000000e+01
3.170000000000000000e+02 3.800000000000000000e+01
3.180000000000000000e+02 3.800000000000000000e+01
3.190000000000000000e+02 3.800000000000000000e+01
4.910000000000000000e+02 3.800000000000000000e+01
4.920000000000000000e+02 3.800000000000000000e+01
4.930000000000000000e+02 3.800000000000000000e+01
4.940000000000000000e+02 3.800000000000000000e+01
4.950000000000000000e+02 3.800000000000000000e+01
6.670000000000000000e+02 3.800000000000000000e+01
6.680000000000000000e+02 3.800000000000000000e+01
6.690000000000000000e+02 3.800000000000000000e+01
6.700000000000000000e+02 3.800000000000000000e+01
6.710000000000000000e+02 3.800000000000000000e+01
6.720000000000000000e+02 3.800000000000000000e+01
6.730000000000000000e+02 3.800000000000000000e+01
8.400000000000000000e+02 3.800000000000000000e+01
8.410000000000000000e+02 3.800000000000000000e+01
8.420000000000000000e+02 3.800000000000000000e+01
8.440000000000000000e+02 3.800000000000000000e+01
8.450000000000000000e+02 3.800000000000000000e+01
8.460000000000000000e+02 3.800000000000000000e+01
1.000000000000000000e+01 3.900000000000000000e+01
1.100000000000000000e+01 3.900000000000000000e+01
1.200000000000000000e+01 3.900000000000000000e+01
1.450000000000000000e+02 3.900000000000000000e+01
1.460000000000000000e+02 3.900000000000000000e+01
1.470000000000000000e+02 3.900000000000000000e+01
1.480000000000000000e+02 3.900000000000000000e+01
1.490000000000000000e+02 3.900000000000000000e+01
1.500000000000000000e+02 3.900000000000000000e+01
3.140000000000000000e+02 3.900000000000000000e+01
3.150000000000000000e+02 3.900000000000000000e+01
3.160000000000000000e+02 3.900000000000000000e+01
3.170000000000000000e+02 3.900000000000000000e+01
3.180000000000000000e+02 3.900000000000000000e+01
3.190000000000000000e+02 3.900000000000000000e+01
4.910000000000000000e+02 3.900000000000000000e+01
4.920000000000000000e+02 3.900000000000000000e+01
4.930000000000000000e+02 3.900000000000000000e+01
4.940000000000000000e+02 3.900000000000000000e+01
4.950000000000000000e+02 3.900000000000000000e+01
6.670000000000000000e+02 3.900000000000000000e+01
6.680000000000000000e+02 3.900000000000000000e+01
6.690000000000000000e+02 3.900000000000000000e+01
6.700000000000000000e+02 3.900000000000000000e+01
6.710000000000000000e+02 3.900000000000000000e+01
6.720000000000000000e+02 3.900000000000000000e+01
6.730000000000000000e+02 3.900000000000000000e+01
8.400000000000000000e+02 3.900000000000000000e+01
8.410000000000000000e+02 3.900000000000000000e+01
8.420000000000000000e+02 3.900000000000000000e+01
8.440000000000000000e+02 3.900000000000000000e+01
8.450000000000000000e+02 3.900000000000000000e+01
8.460000000000000000e+02 3.900000000000000000e+01
1.000000000000000000e+01 4.000000000000000000e+01
1.100000000000000000e+01 4.000000000000000000e+01
1.200000000000000000e+01 4.000000000000000000e+01
1.450000000000000000e+02 4.000000000000000000e+01
1.460000000000000000e+02 4.000000000000000000e+01
1.470000000000000000e+02 4.000000000000000000e+01
1.480000000000000000e+02 4.000000000000000000e+01
1.490000000000000000e+02 4.000000000000000000e+01
1.500000000000000000e+02 4.000000000000000000e+01
3.140000000000000000e+02 4.000000000000000000e+01
3.150000000000000000e+02 4.000000000000000000e+01
3.160000000000000000e+02 4.000000000000000000e+01
3.170000000000000000e+02 4.000000000000000000e+01
3.180000000000000000e+02 4.000000000000000000e+01
3.190000000000000000e+02 4.000000000000000000e+01
6.670000000000000000e+02 4.000000000000000000e+01
6.680000000000000000e+02 4.000000000000000000e+01
6.690000000000000000e+02 4.000000000000000000e+01
6.700000000000000000e+02 4.000000000000000000e+01
6.710000000000000000e+02 4.000000000000000000e+01
6.720000000000000000e+02 4.000000000000000000e+01
6.730000000000000000e+02 4.000000000000000000e+01
8.400000000000000000e+02 4.000000000000000000e+01
8.410000000000000000e+02 4.000000000000000000e+01
8.420000000000000000e+02 4.000000000000000000e+01
8.440000000000000000e+02 4.000000000000000000e+01
8.450000000000000000e+02 4.000000000000000000e+01
8.460000000000000000e+02 4.000000000000000000e+01
1.000000000000000000e+01 4.100000000000000000e+01
1.100000000000000000e+01 4.100000000000000000e+01
1.200000000000000000e+01 4.100000000000000000e+01
1.450000000000000000e+02 4.100000000000000000e+01
1.460000000000000000e+02 4.100000000000000000e+01
1.470000000000000000e+02 4.100000000000000000e+01
1.480000000000000000e+02 4.100000000000000000e+01
1.490000000000000000e+02 4.100000000000000000e+01
1.500000000000000000e+02 4.100000000000000000e+01
3.140000000000000000e+02 4.100000000000000000e+01
3.150000000000000000e+02 4.100000000000000000e+01
3.160000000000000000e+02 4.100000000000000000e+01
3.170000000000000000e+02 4.100000000000000000e+01
3.180000000000000000e+02 4.100000000000000000e+01
3.190000000000000000e+02 4.100000000000000000e+01
6.680000000000000000e+02 4.100000000000000000e+01
6.690000000000000000e+02 4.100000000000000000e+01
6.700000000000000000e+02 4.100000000000000000e+01
6.710000000000000000e+02 4.100000000000000000e+01
6.720000000000000000e+02 4.100000000000000000e+01
8.400000000000000000e+02 4.100000000000000000e+01
8.410000000000000000e+02 4.100000000000000000e+01
8.420000000000000000e+02 4.100000000000000000e+01
8.440000000000000000e+02 4.100000000000000000e+01
8.450000000000000000e+02 4.100000000000000000e+01
8.460000000000000000e+02 4.100000000000000000e+01
1.000000000000000000e+01 4.200000000000000000e+01
1.100000000000000000e+01 4.200000000000000000e+01
1.200000000000000000e+01 4.200000000000000000e+01
1.450000000000000000e+02 4.200000000000000000e+01
1.460000000000000000e+02 4.200000000000000000e+01
1.470000000000000000e+02 4.200000000000000000e+01
1.480000000000000000e+02 4.200000000000000000e+01
1.490000000000000000e+02 4.200000000000000000e+01
1.500000000000000000e+02 4.200000000000000000e+01
3.150000000000000000e+02 4.200000000000000000e+01
3.160000000000000000e+02 4.200000000000000000e+01
3.170000000000000000e+02 4.200000000000000000e+01
3.180000000000000000e+02 4.200000000000000000e+01
3.190000000000000000e+02 4.200000000000000000e+01
6.690000000000000000e+02 4.200000000000000000e+01
6.700000000000000000e+02 4.200000000000000000e+01
6.710000000000000000e+02 4.200000000000000000e+01
6.720000000000000000e+02 4.200000000000000000e+01
8.400000000000000000e+02 4.200000000000000000e+01
8.410000000000000000e+02 4.200000000000000000e+01
8.420000000000000000e+02 4.200000000000000000e+01
8.430000000000000000e+02 4.200000000000000000e+01
8.440000000000000000e+02 4.200000000000000000e+01
8.450000000000000000e+02 4.200000000000000000e+01
8.460000000000000000e+02 4.200000000000000000e+01
1.000000000000000000e+01 4.300000000000000000e+01
1.100000000000000000e+01 4.300000000000000000e+01
1.200000000000000000e+01 4.300000000000000000e+01
1.450000000000000000e+02 4.300000000000000000e+01
1.460000000000000000e+02 4.300000000000000000e+01
1.470000000000000000e+02 4.300000000000000000e+01
1.480000000000000000e+02 4.300000000000000000e+01
1.490000000000000000e+02 4.300000000000000000e+01
1.500000000000000000e+02 4.300000000000000000e+01
3.160000000000000000e+02 4.300000000000000000e+01
3.170000000000000000e+02 4.300000000000000000e+01
3.180000000000000000e+02 4.300000000000000000e+01
3.190000000000000000e+02 4.300000000000000000e+01
8.400000000000000000e+02 4.300000000000000000e+01
8.410000000000000000e+02 4.300000000000000000e+01
8.420000000000000000e+02 4.300000000000000000e+01
8.430000000000000000e+02 4.300000000000000000e+01
8.440000000000000000e+02 4.300000000000000000e+01
8.450000000000000000e+02 4.300000000000000000e+01
8.460000000000000000e+02 4.300000000000000000e+01
1.000000000000000000e+01 4.400000000000000000e+01
1.100000000000000000e+01 4.400000000000000000e+01
1.200000000000000000e+01 4.400000000000000000e+01
1.450000000000000000e+02 4.400000000000000000e+01
1.460000000000000000e+02 4.400000000000000000e+01
1.470000000000000000e+02 4.400000000000000000e+01
1.480000000000000000e+02 4.400000000000000000e+01
1.490000000000000000e+02 4.400000000000000000e+01
3.170000000000000000e+02 4.400000000000000000e+01
8.400000000000000000e+02 4.400000000000000000e+01
8.410000000000000000e+02 4.400000000000000000e+01
8.420000000000000000e+02 4.400000000000000000e+01
8.430000000000000000e+02 4.400000000000000000e+01
8.440000000000000000e+02 4.400000000000000000e+01
8.450000000000000000e+02 4.400000000000000000e+01
8.460000000000000000e+02 4.400000000000000000e+01
1.000000000000000000e+01 4.500000000000000000e+01
1.100000000000000000e+01 4.500000000000000000e+01
1.200000000000000000e+01 4.500000000000000000e+01
1.460000000000000000e+02 4.500000000000000000e+01
1.470000000000000000e+02 4.500000000000000000e+01
1.480000000000000000e+02 4.500000000000000000e+01
1.490000000000000000e+02 4.500000000000000000e+01
8.400000000000000000e+02 4.500000000000000000e+01
8.410000000000000000e+02 4.500000000000000000e+01
8.420000000000000000e+02 4.500000000000000000e+01
8.430000000000000000e+02 4.500000000000000000e+01
8.440000000000000000e+02 4.500000000000000000e+01
8.450000000000000000e+02 4.500000000000000000e+01
1.000000000000000000e+01 4.600000000000000000e+01
1.100000000000000000e+01 4.600000000000000000e+01
1.200000000000000000e+01 4.600000000000000000e+01
1.460000000000000000e+02 4.600000000000000000e+01
1.470000000000000000e+02 4.600000000000000000e+01
1.480000000000000000e+02 4.600000000000000000e+01
8.410000000000000000e+02 4.600000000000000000e+01
8.420000000000000000e+02 4.600000000000000000e+01
8.430000000000000000e+02 4.600000000000000000e+01
8.440000000000000000e+02 4.600000000000000000e+01
8.450000000000000000e+02 4.600000000000000000e+01
1.000000000000000000e+01 4.700000000000000000e+01
1.100000000000000000e+01 4.700000000000000000e+01
1.200000000000000000e+01 4.700000000000000000e+01
8.410000000000000000e+02 4.700000000000000000e+01
8.420000000000000000e+02 4.700000000000000000e+01
8.430000000000000000e+02 4.700000000000000000e+01
8.440000000000000000e+02 4.700000000000000000e+01
8.450000000000000000e+02 4.700000000000000000e+01
1.000000000000000000e+01 4.800000000000000000e+01
1.100000000000000000e+01 4.800000000000000000e+01
1.200000000000000000e+01 4.800000000000000000e+01
8.410000000000000000e+02 4.800000000000000000e+01
8.420000000000000000e+02 4.800000000000000000e+01
8.430000000000000000e+02 4.800000000000000000e+01
8.440000000000000000e+02 4.800000000000000000e+01
1.000000000000000000e+01 4.900000000000000000e+01
1.100000000000000000e+01 4.900000000000000000e+01
1.200000000000000000e+01 4.900000000000000000e+01
8.420000000000000000e+02 4.900000000000000000e+01
8.430000000000000000e+02 4.900000000000000000e+01
1.000000000000000000e+01 5.000000000000000000e+01
1.100000000000000000e+01 5.000000000000000000e+01
1.200000000000000000e+01 5.000000000000000000e+01
1.000000000000000000e+01 5.100000000000000000e+01
1.100000000000000000e+01 5.100000000000000000e+01
1.200000000000000000e+01 5.100000000000000000e+01
1.000000000000000000e+01 5.200000000000000000e+01
1.100000000000000000e+01 5.200000000000000000e+01
1.200000000000000000e+01 5.200000000000000000e+01
1.000000000000000000e+01 5.300000000000000000e+01
1.100000000000000000e+01 5.300000000000000000e+01
1.200000000000000000e+01 5.300000000000000000e+01
1.000000000000000000e+01 5.400000000000000000e+01
1.100000000000000000e+01 5.400000000000000000e+01
1.200000000000000000e+01 5.400000000000000000e+01
1.000000000000000000e+01 5.500000000000000000e+01
1.100000000000000000e+01 5.500000000000000000e+01
1.200000000000000000e+01 5.500000000000000000e+01
1.000000000000000000e+01 5.600000000000000000e+01
1.100000000000000000e+01 5.600000000000000000e+01
1.200000000000000000e+01 5.600000000000000000e+01
1.000000000000000000e+01 5.700000000000000000e+01
1.100000000000000000e+01 5.700000000000000000e+01
1.200000000000000000e+01 5.700000000000000000e+01
1.000000000000000000e+01 5.800000000000000000e+01
1.100000000000000000e+01 5.800000000000000000e+01
1.200000000000000000e+01 5.800000000000000000e+01
1.000000000000000000e+01 5.900000000000000000e+01
1.100000000000000000e+01 5.900000000000000000e+01
1.200000000000000000e+01 5.900000000000000000e+01
1.000000000000000000e+01 6.000000000000000000e+01
1.100000000000000000e+01 6.000000000000000000e+01
1.200000000000000000e+01 6.000000000000000000e+01
1.000000000000000000e+01 6.100000000000000000e+01
1.100000000000000000e+01 6.100000000000000000e+01
1.200000000000000000e+01 6.100000000000000000e+01
1.000000000000000000e+01 6.200000000000000000e+01
1.100000000000000000e+01 6.200000000000000000e+01
1.200000000000000000e+01 6.200000000000000000e+01
1.000000000000000000e+01 6.300000000000000000e+01
1.100000000000000000e+01 6.300000000000000000e+01
1.200000000000000000e+01 6.300000000000000000e+01
1.000000000000000000e+01 6.400000000000000000e+01
1.100000000000000000e+01 6.400000000000000000e+01
1.200000000000000000e+01 6.400000000000000000e+01
1.000000000000000000e+01 6.500000000000000000e+01
1.100000000000000000e+01 6.500000000000000000e+01
1.200000000000000000e+01 6.500000000000000000e+01
1.000000000000000000e+01 6.600000000000000000e+01
1.100000000000000000e+01 6.600000000000000000e+01
1.200000000000000000e+01 6.600000000000000000e+01
1.000000000000000000e+01 6.700000000000000000e+01
1.100000000000000000e+01 6.700000000000000000e+01
1.200000000000000000e+01 6.700000000000000000e+01
1.000000000000000000e+01 6.800000000000000000e+01
1.100000000000000000e+01 6.800000000000000000e+01
1.200000000000000000e+01 6.800000000000000000e+01
1.000000000000000000e+01 6.900000000000000000e+01
1.100000000000000000e+01 6.900000000000000000e+01
1.200000000000000000e+01 6.900000000000000000e+01
1.000000000000000000e+01 7.000000000000000000e+01
1.100000000000000000e+01 7.000000000000000000e+01
1.200000000000000000e+01 7.000000000000000000e+01
1.000000000000000000e+01 7.100000000000000000e+01
1.100000000000000000e+01 7.100000000000000000e+01
1.200000000000000000e+01 7.100000000000000000e+01
1.000000000000000000e+01 7.200000000000000000e+01
1.100000000000000000e+01 7.200000000000000000e+01
1.200000000000000000e+01 7.200000000000000000e+01
1.000000000000000000e+01 7.300000000000000000e+01
1.100000000000000000e+01 7.300000000000000000e+01
1.200000000000000000e+01 7.300000000000000000e+01
1.000000000000000000e+01 7.400000000000000000e+01
1.100000000000000000e+01 7.400000000000000000e+01
1.200000000000000000e+01 7.400000000000000000e+01
1.000000000000000000e+01 7.500000000000000000e+01
1.100000000000000000e+01 7.500000000000000000e+01
1.200000000000000000e+01 7.500000000000000000e+01
1.000000000000000000e+01 7.600000000000000000e+01
1.100000000000000000e+01 7.600000000000000000e+01
1.200000000000000000e+01 7.600000000000000000e+01
1.000000000000000000e+01 7.700000000000000000e+01
1.100000000000000000e+01 7.700000000000000000e+01
1.200000000000000000e+01 7.700000000000000000e+01
1.000000000000000000e+01 7.800000000000000000e+01
1.100000000000000000e+01 7.800000000000000000e+01
1.200000000000000000e+01 7.800000000000000000e+01
1.000000000000000000e+01 7.900000000000000000e+01
1.100000000000000000e+01 7.900000000000000000e+01
1.200000000000000000e+01 7.900000000000000000e+01
1.000000000000000000e+01 8.000000000000000000e+01
1.100000000000000000e+01 8.000000000000000000e+01
1.200000000000000000e+01 8.000000000000000000e+01
1.000000000000000000e+01 8.100000000000000000e+01
1.100000000000000000e+01 8.100000000000000000e+01
1.200000000000000000e+01 8.100000000000000000e+01
1.000000000000000000e+01 8.200000000000000000e+01
1.100000000000000000e+01 8.200000000000000000e+01
1.200000000000000000e+01 8.200000000000000000e+01
1.000000000000000000e+01 8.300000000000000000e+01
1.100000000000000000e+01 8.300000000000000000e+01
1.200000000000000000e+01 8.300000000000000000e+01
1.000000000000000000e+01 8.400000000000000000e+01
1.100000000000000000e+01 8.400000000000000000e+01
1.200000000000000000e+01 8.400000000000000000e+01
1.000000000000000000e+01 8.500000000000000000e+01
1.100000000000000000e+01 8.500000000000000000e+01
1.200000000000000000e+01 8.500000000000000000e+01
1.000000000000000000e+01 8.600000000000000000e+01
1.100000000000000000e+01 8.600000000000000000e+01
1.200000000000000000e+01 8.600000000000000000e+01
1.000000000000000000e+01 8.700000000000000000e+01
1.100000000000000000e+01 8.700000000000000000e+01
1.200000000000000000e+01 8.700000000000000000e+01
1.000000000000000000e+01 8.800000000000000000e+01
1.100000000000000000e+01 8.800000000000000000e+01
1.200000000000000000e+01 8.800000000000000000e+01
1.000000000000000000e+01 8.900000000000000000e+01
1.100000000000000000e+01 8.900000000000000000e+01
1.200000000000000000e+01 8.900000000000000000e+01
1.000000000000000000e+01 9.000000000000000000e+01
1.100000000000000000e+01 9.000000000000000000e+01
1.200000000000000000e+01 9.000000000000000000e+01
1.000000000000000000e+01 9.100000000000000000e+01
1.100000000000000000e+01 9.100000000000000000e+01
1.200000000000000000e+01 9.100000000000000000e+01
1.000000000000000000e+01 9.200000000000000000e+01
1.100000000000000000e+01 9.200000000000000000e+01
1.200000000000000000e+01 9.200000000000000000e+01
1.000000000000000000e+01 9.300000000000000000e+01
1.100000000000000000e+01 9.300000000000000000e+01
1.200000000000000000e+01 9.300000000000000000e+01
1.000000000000000000e+01 9.400000000000000000e+01
1.100000000000000000e+01 9.400000000000000000e+01
1.200000000000000000e+01 9.400000000000000000e+01
1.000000000000000000e+01 9.500000000000000000e+01
1.100000000000000000e+01 9.500000000000000000e+01
1.200000000000000000e+01 9.500000000000000000e+01
1.000000000000000000e+01 9.600000000000000000e+01
1.100000000000000000e+01 9.600000000000000000e+01
1.200000000000000000e+01 9.600000000000000000e+01
1.000000000000000000e+01 9.700000000000000000e+01
1.100000000000000000e+01 9.700000000000000000e+01
1.200000000000000000e+01 9.700000000000000000e+01
1.000000000000000000e+01 9.800000000000000000e+01
1.100000000000000000e+01 9.800000000000000000e+01
1.200000000000000000e+01 9.800000000000000000e+01
1.000000000000000000e+01 9.900000000000000000e+01
1.100000000000000000e+01 9.900000000000000000e+01
1.200000000000000000e+01 9.900000000000000000e+01
1.000000000000000000e+01 1.000000000000000000e+02
1.100000000000000000e+01 1.000000000000000000e+02
1.200000000000000000e+01 1.000000000000000000e+02
1.000000000000000000e+01 1.010000000000000000e+02
1.100000000000000000e+01 1.010000000000000000e+02
1.200000000000000000e+01 1.010000000000000000e+02
1.000000000000000000e+01 1.020000000000000000e+02
1.100000000000000000e+01 1.020000000000000000e+02
1.200000000000000000e+01 1.020000000000000000e+02
1.000000000000000000e+01 1.030000000000000000e+02
1.100000000000000000e+01 1.030000000000000000e+02
1.200000000000000000e+01 1.030000000000000000e+02
1.000000000000000000e+01 1.040000000000000000e+02
1.100000000000000000e+01 1.040000000000000000e+02
1.200000000000000000e+01 1.040000000000000000e+02
1.000000000000000000e+01 1.050000000000000000e+02
1.100000000000000000e+01 1.050000000000000000e+02
1.200000000000000000e+01 1.050000000000000000e+02
1.000000000000000000e+01 1.060000000000000000e+02
1.100000000000000000e+01 1.060000000000000000e+02
1.200000000000000000e+01 1.060000000000000000e+02
1.000000000000000000e+01 1.070000000000000000e+02
1.100000000000000000e+01 1.070000000000000000e+02
1.200000000000000000e+01 1.070000000000000000e+02
1.000000000000000000e+01 1.080000000000000000e+02
1.100000000000000000e+01 1.080000000000000000e+02
1.200000000000000000e+01 1.080000000000000000e+02
1.000000000000000000e+01 1.090000000000000000e+02
1.100000000000000000e+01 1.090000000000000000e+02
1.200000000000000000e+01 1.090000000000000000e+02
1.000000000000000000e+01 1.100000000000000000e+02
1.100000000000000000e+01 1.100000000000000000e+02
1.200000000000000000e+01 1.100000000000000000e+02
1.000000000000000000e+01 1.110000000000000000e+02
1.100000000000000000e+01 1.110000000000000000e+02
1.200000000000000000e+01 1.110000000000000000e+02
1.000000000000000000e+01 1.120000000000000000e+02
1.100000000000000000e+01 1.120000000000000000e+02
1.200000000000000000e+01 1.120000000000000000e+02
1.000000000000000000e+01 1.130000000000000000e+02
1.100000000000000000e+01 1.130000000000000000e+02
1.200000000000000000e+01 1.130000000000000000e+02
1.000000000000000000e+01 1.140000000000000000e+02
1.100000000000000000e+01 1.140000000000000000e+02
1.200000000000000000e+01 1.140000000000000000e+02
