1.000000000000000000e+01 0.000000000000000000e+00
1.100000000000000000e+01 0.000000000000000000e+00
1.200000000000000000e+01 0.000000000000000000e+00
2.600000000000000000e+01 0.000000000000000000e+00
2.700000000000000000e+01 0.000000000000000000e+00
2.800000000000000000e+01 0.000000000000000000e+00
1.590000000000000000e+02 0.000000000000000000e+00
1.600000000000000000e+02 0.000000000000000000e+00
1.610000000000000000e+02 0.000000000000000000e+00
4.450000000000000000e+02 0.000000000000000000e+00
4.460000000000000000e+02 0.000000000000000000e+00
4.470000000000000000e+02 0.000000000000000000e+00
8.270000000000000000e+02 0.000000000000000000e+00
8.280000000000000000e+02 0.000000000000000000e+00
8.290000000000000000e+02 0.000000000000000000e+00
9.630000000000000000e+02 0.000000000000000000e+00
9.640000000000000000e+02 0.000000000000000000e+00
9.650000000000000000e+02 0.000000000000000000e+00
9.660000000000000000e+02 0.000000000000000000e+00
1.000000000000000000e+01 1.000000000000000000e+00
1.100000000000000000e+01 1.000000000000000000e+00
1.200000000000000000e+01 1.000000000000000000e+00
9.630000000000000000e+02 1.000000000000000000e+00
9.640000000000000000e+02 1.000000000000000000e+00
9.650000000000000000e+02 1.000000000000000000e+00
9.660000000000000000e+02 1.000000000000000000e+00
1.000000000000000000e+01 2.000000000000000000e+00
1.100000000000000000e+01 2.000000000000000000e+00
1.200000000000000000e+01 2.000000000000000000e+00
9.640000000000000000e+02 2.000000000000000000e+00
9.650000000000000000e+02 2.000000000000000000e+00
9.660000000000000000e+02 2.000000000000000000e+00
1.000000000000000000e+01 3.000000000000000000e+00
1.100000000000000000e+01 3.000000000000000000e+00
1.200000000000000000e+01 3.000000000000000000e+00
1.000000000000000000e+01 4.000000000000000000e+00
1.100000000000000000e+01 4.000000000000000000e+00
1.200000000000000000e+01 4.000000000000000000e+00
1.000000000000000000e+01 5.000000000000000000e+00
1.100000000000000000e+01 5.000000000000000000e+00
1.200000000000000000e+01 5.000000000000000000e+00
1.000000000000000000e+01 6.000000000000000000e+00
1.100000000000000000e+01 6.000000000000000000e+00
1.200000000000000000e+01 6.000000000000000000e+00
1.000000000000000000e+01 7.000000000000000000e+00
1.100000000000000000e+01 7.000000000000000000e+00
1.200000000000000000e+01 7.000000000000000000e+00
1.000000000000000000e+01 8.000000000000000000e+00
1.100000000000000000e+01 8.000000000000000000e+00
1.200000000000000000e+01 8.000000000000000000e+00
1.000000000000000000e+01 9.000000000000000000e+00
1.100000000000000000e+01 9.000000000000000000e+00
1.200000000000000000e+01 9.000000000000000000e+00
1.000000000000000000e+01 1.000000000000000000e+01
1.100000000000000000e+01 1.000000000000000000e+01
1.200000000000000000e+01 1.000000000000000000e+01
1.000000000000000000e+01 1.100000000000000000e+01
1.100000000000000000e+01 1.100000000000000000e+01
1.200000000000000000e+01 1.100000000000000000e+01
1.000000000000000000e+01 1.200000000000000000e+01
1.100000000000000000e+01 1.200000000000000000e+01
1.200000000000000000e+01 1.200000000000000000e+01
1.000000000000000000e+01 1.300000000000000000e+01
1.100000000000000000e+01 1.300000000000000000e+01
1.200000000000000000e+01 1.300000000000000000e+01
1.000000000000000000e+01 1.400000000000000000e+01
1.100000000000000000e+01 1.400000000000000000e+01
1.200000000000000000e+01 1.400000000000000000e+01
1.000000000000000000e+01 1.500000000000000000e+01
1.100000000000000000e+01 1.500000000000000000e+01
1.200000000000000000e+01 1.500000000000000000e+01
1.000000000000000000e+01 1.600000000000000000e+01
1.100000000000000000e+01 1.600000000000000000e+01
1.200000000000000000e+01 1.600000000000000000e+01
1.000000000000000000e+01 1.700000000000000000e+01
1.100000000000000000e+01 1.700000000000000000e+01
1.200000000000000000e+01 1.700000000000000000e+01
1.000000000000000000e+01 1.800000000000000000e+01
1.100000000000000000e+01 1.800000000000000000e+01
1.200000000000000000e+01 1.800000000000000000e+01
1.000000000000000000e+01 1.900000000000000000e+01
1.100000000000000000e+01 1.900000000000000000e+01
1.200000000000000000e+01 1.900000000000000000e+01
1.000000000000000000e+01 2.000000000000000000e+01
1.100000000000000000e+01 2.000000000000000000e+01
1.200000000000000000e+01 2.000000000000000000e+01
1.000000000000000000e+01 2.100000000000000000e+01
1.100000000000000000e+01 2.100000000000000000e+01
1.200000000000000000e+01 2.100000000000000000e+01
1.000000000000000000e+01 2.200000000000000000e+01
1.100000000000000000e+01 2.200000000000000000e+01
1.200000000000000000e+01 2.200000000000000000e+01
1.000000000000000000e+01 2.300000000000000000e+01
1.100000000000000000e+01 2.300000000000000000e+01
1.200000000000000000e+01 2.300000000000000000e+01
1.000000000000000000e+01 2.400000000000000000e+01
1.100000000000000000e+01 2.400000000000000000e+01
1.200000000000000000e+01 2.400000000000000000e+01
1.000000000000000000e+01 2.500000000000000000e+01
1.100000000000000000e+01 2.500000000000000000e+01
1.200000000000000000e+01 2.500000000000000000e+01
1.000000000000000000e+01 2.600000000000000000e+01
1.100000000000000000e+01 2.600000000000000000e+01
1.200000000000000000e+01 2.600000000000000000e+01
1.000000000000000000e+01 2.700000000000000000e+01
1.100000000000000000e+01 2.700000000000000000e+01
1.200000000000000000e+01 2.700000000000000000e+01
1.000000000000000000e+01 2.800000000000000000e+01
1.100000000000000000e+01 2.800000000000000000e+01
1.200000000000000000e+01 2.800000000000000000e+01
1.000000000000000000e+01 2.900000000000000000e+01
1.100000000000000000e+01 2.900000000000000000e+01
1.200000000000000000e+01 2.900000000000000000e+01
1.000000000000000000e+01 3.000000000000000000e+01
1.100000000000000000e+01 3.000000000000000000e+01
1.200000000000000000e+01 3.000000000000000000e+01
1.000000000000000000e+01 3.100000000000000000e+01
1.100000000000000000e+01 3.100000000000000000e+01
1.200000000000000000e+01 3.100000000000000000e+01
1.000000000000000000e+01 3.200000000000000000e+01
1.100000000000000000e+01 3.200000000000000000e+01
1.200000000000000000e+01 3.200000000000000000e+01
1.000000000000000000e+01 3.300000000000000000e+01
1.100000000000000000e+01 3.300000000000000000e+01
1.200000000000000000e+01 3.300000000000000000e+01
1.000000000000000000e+01 3.400000000000000000e+01
1.100000000000000000e+01 3.400000000000000000e+01
1.200000000000000000e+01 3.400000000000000000e+01
1.000000000000000000e+01 3.500000000000000000e+01
1.100000000000000000e+01 3.500000000000000000e+01
1.200000000000000000e+01 3.500000000000000000e+01
1.000000000000000000e+01 3.600000000000000000e+01
1.100000000000000000e+01 3.600000000000000000e+01
1.200000000000000000e+01 3.600000000000000000e+01
1.000000000000000000e+01 3.700000000000000000e+01
1.100000000000000000e+01 3.700000000000000000e+01
1.200000000000000000e+01 3.700000000000000000e+01
1.000000000000000000e+01 3.800000000000000000e+01
1.100000000000000000e+01 3.800000000000000000e+01
1.200000000000000000e+01 3.800000000000000000e+01
1.000000000000000000e+01 3.900000000000000000e+01
1.100000000000000000e+01 3.900000000000000000e+01
1.200000000000000000e+01 3.900000000000000000e+01
1.000000000000000000e+01 4.000000000000000000e+01
1.100000000000000000e+01 4.000000000000000000e+01
1.200000000000000000e+01 4.000000000000000000e+01
1.000000000000000000e+01 4.100000000000000000e+01
1.100000000000000000e+01 4.100000000000000000e+01
1.200000000000000000e+01 4.100000000000000000e+01
1.000000000000000000e+01 4.200000000000000000e+01
1.100000000000000000e+01 4.200000000000000000e+01
1.200000000000000000e+01 4.200000000000000000e+01
1.000000000000000000e+01 4.300000000000000000e+01
1.100000000000000000e+01 4.300000000000000000e+01
1.200000000000000000e+01 4.300000000000000000e+01
1.000000000000000000e+01 4.400000000000000000e+01
1.100000000000000000e+01 4.400000000000000000e+01
1.200000000000000000e+01 4.400000000000000000e+01
1.000000000000000000e+01 4.500000000000000000e+01
1.100000000000000000e+01 4.500000000000000000e+01
1.200000000000000000e+01 4.500000000000000000e+01
1.000000000000000000e+01 4.600000000000000000e+01
1.100000000000000000e+01 4.600000000000000000e+01
1.200000000000000000e+01 4.600000000000000000e+01
1.000000000000000000e+01 4.700000000000000000e+01
1.100000000000000000e+01 4.700000000000000000e+01
1.200000000000000000e+01 4.700000000000000000e+01
1.000000000000000000e+01 4.800000000000000000e+01
1.100000000000000000e+01 4.800000000000000000e+01
1.200000000000000000e+01 4.800000000000000000e+01
1.000000000000000000e+01 4.900000000000000000e+01
1.100000000000000000e+01 4.900000000000000000e+01
1.200000000000000000e+01 4.900000000000000000e+01
1.000000000000000000e+01 5.000000000000000000e+01
1.100000000000000000e+01 5.000000000000000000e+01
1.200000000000000000e+01 5.000000000000000000e+01
1.000000000000000000e+01 5.100000000000000000e+01
1.100000000000000000e+01 5.100000000000000000e+01
1.200000000000000000e+01 5.100000000000000000e+01
2.400000000000000000e+01 5.100000000000000000e+01
1.000000000000000000e+01 5.200000000000000000e+01
1.100000000000000000e+01 5.200000000000000000e+01
1.200000000000000000e+01 5.200000000000000000e+01
2.300000000000000000e+01 5.200000000000000000e+01
2.400000000000000000e+01 5.200000000000000000e+01
2.500000000000000000e+01 5.200000000000000000e+01
5.740000000000000000e+02 5.200000000000000000e+01
5.750000000000000000e+02 5.200000000000000000e+01
1.000000000000000000e+01 5.300000000000000000e+01
1.100000000000000000e+01 5.300000000000000000e+01
1.200000000000000000e+01 5.300000000000000000e+01
2.300000000000000000e+01 5.300000000000000000e+01
2.400000000000000000e+01 5.300000000000000000e+01
2.500000000000000000e+01 5.300000000000000000e+01
4.410000000000000000e+02 5.300000000000000000e+01
4.420000000000000000e+02 5.300000000000000000e+01
4.430000000000000000e+02 5.300000000000000000e+01
5.730000000000000000e+02 5.300000000000000000e+01
5.740000000000000000e+02 5.300000000000000000e+01
5.750000000000000000e+02 5.300000000000000000e+01
5.760000000000000000e+02 5.300000000000000000e+01
1.000000000000000000e+01 5.400000000000000000e+01
1.100000000000000000e+01 5.400000000000000000e+01
1.200000000000000000e+01 5.400000000000000000e+01
2.200000000000000000e+01 5.400000000000000000e+01
2.300000000000000000e+01 5.400000000000000000e+01
2.400000000000000000e+01 5.400000000000000000e+01
2.500000000000000000e+01 5.400000000000000000e+01
4.410000000000000000e+02 5.400000000000000000e+01
4.420000000000000000e+02 5.400000000000000000e+01
4.430000000000000000e+02 5.400000000000000000e+01
4.440000000000000000e+02 5.400000000000000000e+01
5.730000000000000000e+02 5.400000000000000000e+01
5.740000000000000000e+02 5.400000000000000000e+01
5.750000000000000000e+02 5.400000000000000000e+01
5.760000000000000000e+02 5.400000000000000000e+01
9.610000000000000000e+02 5.400000000000000000e+01
1.000000000000000000e+01 5.500000000000000000e+01
1.100000000000000000e+01 5.500000000000000000e+01
1.200000000000000000e+01 5.500000000000000000e+01
2.200000000000000000e+01 5.500000000000000000e+01
2.300000000000000000e+01 5.500000000000000000e+01
2.400000000000000000e+01 5.500000000000000000e+01
2.500000000000000000e+01 5.500000000000000000e+01
4.410000000000000000e+02 5.500000000000000000e+01
4.420000000000000000e+02 5.500000000000000000e+01
4.430000000000000000e+02 5.500000000000000000e+01
4.440000000000000000e+02 5.500000000000000000e+01
5.730000000000000000e+02 5.500000000000000000e+01
5.740000000000000000e+02 5.500000000000000000e+01
5.750000000000000000e+02 5.500000000000000000e+01
5.760000000000000000e+02 5.500000000000000000e+01
9.600000000000000000e+02 5.500000000000000000e+01
9.610000000000000000e+02 5.500000000000000000e+01
9.620000000000000000e+02 5.500000000000000000e+01
1.000000000000000000e+01 5.600000000000000000e+01
1.100000000000000000e+01 5.600000000000000000e+01
1.200000000000000000e+01 5.600000000000000000e+01
2.200000000000000000e+01 5.600000000000000000e+01
2.300000000000000000e+01 5.600000000000000000e+01
2.400000000000000000e+01 5.600000000000000000e+01
2.500000000000000000e+01 5.600000000000000000e+01
2.970000000000000000e+02 5.600000000000000000e+01
2.980000000000000000e+02 5.600000000000000000e+01
2.990000000000000000e+02 5.600000000000000000e+01
4.410000000000000000e+02 5.600000000000000000e+01
4.420000000000000000e+02 5.600000000000000000e+01
4.430000000000000000e+02 5.600000000000000000e+01
4.440000000000000000e+02 5.600000000000000000e+01
5.730000000000000000e+02 5.600000000000000000e+01
5.740000000000000000e+02 5.600000000000000000e+01
5.750000000000000000e+02 5.600000000000000000e+01
5.760000000000000000e+02 5.600000000000000000e+01
9.600000000000000000e+02 5.600000000000000000e+01
9.610000000000000000e+02 5.600000000000000000e+01
9.620000000000000000e+02 5.600000000000000000e+01
9.630000000000000000e+02 5.600000000000000000e+01
1.000000000000000000e+01 5.700000000000000000e+01
1.100000000000000000e+01 5.700000000000000000e+01
1.200000000000000000e+01 5.700000000000000000e+01
2.200000000000000000e+01 5.700000000000000000e+01
2.300000000000000000e+01 5.700000000000000000e+01
2.400000000000000000e+01 5.700000000000000000e+01
2.500000000000000000e+01 5.700000000000000000e+01
2.970000000000000000e+02 5.700000000000000000e+01
2.980000000000000000e+02 5.700000000000000000e+01
2.990000000000000000e+02 5.700000000000000000e+01
4.410000000000000000e+02 5.700000000000000000e+01
4.420000000000000000e+02 5.700000000000000000e+01
4.430000000000000000e+02 5.700000000000000000e+01
4.440000000000000000e+02 5.700000000000000000e+01
5.730000000000000000e+02 5.700000000000000000e+01
5.740000000000000000e+02 5.700000000000000000e+01
5.750000000000000000e+02 5.700000000000000000e+01
5.760000000000000000e+02 5.700000000000000000e+01
6.960000000000000000e+02 5.700000000000000000e+01
6.970000000000000000e+02 5.700000000000000000e+01
9.600000000000000000e+02 5.700000000000000000e+01
9.610000000000000000e+02 5.700000000000000000e+01
9.620000000000000000e+02 5.700000000000000000e+01
9.630000000000000000e+02 5.700000000000000000e+01
1.000000000000000000e+01 5.800000000000000000e+01
1.100000000000000000e+01 5.800000000000000000e+01
1.200000000000000000e+01 5.800000000000000000e+01
2.200000000000000000e+01 5.800000000000000000e+01
2.300000000000000000e+01 5.800000000000000000e+01
2.400000000000000000e+01 5.800000000000000000e+01
2.500000000000000000e+01 5.800000000000000000e+01
1.570000000000000000e+02 5.800000000000000000e+01
2.970000000000000000e+02 5.800000000000000000e+01
2.980000000000000000e+02 5.800000000000000000e+01
2.990000000000000000e+02 5.800000000000000000e+01
4.410000000000000000e+02 5.800000000000000000e+01
4.420000000000000000e+02 5.800000000000000000e+01
4.430000000000000000e+02 5.800000000000000000e+01
4.440000000000000000e+02 5.800000000000000000e+01
5.730000000000000000e+02 5.800000000000000000e+01
5.740000000000000000e+02 5.800000000000000000e+01
5.750000000000000000e+02 5.800000000000000000e+01
5.760000000000000000e+02 5.800000000000000000e+01
6.950000000000000000e+02 5.800000000000000000e+01
6.960000000000000000e+02 5.800000000000000000e+01
6.970000000000000000e+02 5.800000000000000000e+01
8.230000000000000000e+02 5.800000000000000000e+01
8.240000000000000000e+02 5.800000000000000000e+01
8.250000000000000000e+02 5.800000000000000000e+01
9.600000000000000000e+02 5.800000000000000000e+01
9.610000000000000000e+02 5.800000000000000000e+01
9.620000000000000000e+02 5.800000000000000000e+01
9.630000000000000000e+02 5.800000000000000000e+01
1.000000000000000000e+01 5.900000000000000000e+01
1.100000000000000000e+01 5.900000000000000000e+01
1.200000000000000000e+01 5.900000000000000000e+01
2.200000000000000000e+01 5.900000000000000000e+01
2.300000000000000000e+01 5.900000000000000000e+01
2.400000000000000000e+01 5.900000000000000000e+01
2.500000000000000000e+01 5.900000000000000000e+01
1.560000000000000000e+02 5.900000000000000000e+01
1.570000000000000000e+02 5.900000000000000000e+01
1.580000000000000000e+02 5.900000000000000000e+01
2.970000000000000000e+02 5.900000000000000000e+01
2.980000000000000000e+02 5.900000000000000000e+01
2.990000000000000000e+02 5.900000000000000000e+01
4.410000000000000000e+02 5.900000000000000000e+01
4.420000000000000000e+02 5.900000000000000000e+01
4.430000000000000000e+02 5.900000000000000000e+01
4.440000000000000000e+02 5.900000000000000000e+01
5.730000000000000000e+02 5.900000000000000000e+01
5.740000000000000000e+02 5.900000000000000000e+01
5.750000000000000000e+02 5.900000000000000000e+01
5.760000000000000000e+02 5.900000000000000000e+01
6.950000000000000000e+02 5.900000000000000000e+01
6.960000000000000000e+02 5.900000000000000000e+01
6.970000000000000000e+02 5.900000000000000000e+01
8.230000000000000000e+02 5.900000000000000000e+01
8.240000000000000000e+02 5.900000000000000000e+01
8.250000000000000000e+02 5.900000000000000000e+01
9.600000000000000000e+02 5.900000000000000000e+01
9.610000000000000000e+02 5.900000000000000000e+01
9.620000000000000000e+02 5.900000000000000000e+01
9.630000000000000000e+02 5.900000000000000000e+01
1.000000000000000000e+01 6.000000000000000000e+01
1.100000000000000000e+01 6.000000000000000000e+01
1.200000000000000000e+01 6.000000000000000000e+01
2.200000000000000000e+01 6.000000000000000000e+01
2.300000000000000000e+01 6.000000000000000000e+01
2.400000000000000000e+01 6.000000000000000000e+01
2.500000000000000000e+01 6.000000000000000000e+01
1.560000000000000000e+02 6.000000000000000000e+01
1.570000000000000000e+02 6.000000000000000000e+01
1.580000000000000000e+02 6.000000000000000000e+01
2.970000000000000000e+02 6.000000000000000000e+01
2.980000000000000000e+02 6.000000000000000000e+01
2.990000000000000000e+02 6.000000000000000000e+01
4.410000000000000000e+02 6.000000000000000000e+01
4.420000000000000000e+02 6.000000000000000000e+01
4.430000000000000000e+02 6.000000000000000000e+01
4.440000000000000000e+02 6.000000000000000000e+01
5.730000000000000000e+02 6.000000000000000000e+01
5.740000000000000000e+02 6.000000000000000000e+01
5.750000000000000000e+02 6.000000000000000000e+01
5.760000000000000000e+02 6.000000000000000000e+01
6.950000000000000000e+02 6.000000000000000000e+01
6.960000000000000000e+02 6.000000000000000000e+01
6.970000000000000000e+02 6.000000000000000000e+01
8.230000000000000000e+02 6.000000000000000000e+01
8.240000000000000000e+02 6.000000000000000000e+01
8.250000000000000000e+02 6.000000000000000000e+01
9.600000000000000000e+02 6.000000000000000000e+01
9.610000000000000000e+02 6.000000000000000000e+01
9.620000000000000000e+02 6.000000000000000000e+01
9.630000000000000000e+02 6.000000000000000000e+01
1.000000000000000000e+01 6.100000000000000000e+01
1.100000000000000000e+01 6.100000000000000000e+01
1.200000000000000000e+01 6.100000000000000000e+01
2.200000000000000000e+01 6.100000000000000000e+01
2.300000000000000000e+01 6.100000000000000000e+01
2.400000000000000000e+01 6.100000000000000000e+01
2.500000000000000000e+01 6.100000000000000000e+01
1.550000000000000000e+02 6.100000000000000000e+01
1.560000000000000000e+02 6.100000000000000000e+01
1.570000000000000000e+02 6.100000000000000000e+01
1.580000000000000000e+02 6.100000000000000000e+01
2.970000000000000000e+02 6.100000000000000000e+01
2.980000000000000000e+02 6.100000000000000000e+01
2.990000000000000000e+02 6.100000000000000000e+01
4.410000000000000000e+02 6.100000000000000000e+01
4.420000000000000000e+02 6.100000000000000000e+01
4.430000000000000000e+02 6.100000000000000000e+01
4.440000000000000000e+02 6.100000000000000000e+01
5.730000000000000000e+02 6.100000000000000000e+01
5.740000000000000000e+02 6.100000000000000000e+01
5.750000000000000000e+02 6.100000000000000000e+01
5.760000000000000000e+02 6.100000000000000000e+01
6.950000000000000000e+02 6.100000000000000000e+01
6.960000000000000000e+02 6.100000000000000000e+01
6.970000000000000000e+02 6.100000000000000000e+01
8.230000000000000000e+02 6.100000000000000000e+01
8.240000000000000000e+02 6.100000000000000000e+01
8.250000000000000000e+02 6.100000000000000000e+01
9.600000000000000000e+02 6.100000000000000000e+01
9.610000000000000000e+02 6.100000000000000000e+01
9.620000000000000000e+02 6.100000000000000000e+01
9.630000000000000000e+02 6.100000000000000000e+01
1.000000000000000000e+01 6.200000000000000000e+01
1.100000000000000000e+01 6.200000000000000000e+01
1.200000000000000000e+01 6.200000000000000000e+01
2.200000000000000000e+01 6.200000000000000000e+01
2.300000000000000000e+01 6.200000000000000000e+01
2.400000000000000000e+01 6.200000000000000000e+01
2.500000000000000000e+01 6.200000000000000000e+01
1.550000000000000000e+02 6.200000000000000000e+01
1.560000000000000000e+02 6.200000000000000000e+01
1.570000000000000000e+02 6.200000000000000000e+01
1.580000000000000000e+02 6.200000000000000000e+01
2.970000000000000000e+02 6.200000000000000000e+01
2.980000000000000000e+02 6.200000000000000000e+01
2.990000000000000000e+02 6.200000000000000000e+01
4.410000000000000000e+02 6.200000000000000000e+01
4.420000000000000000e+02 6.200000000000000000e+01
4.430000000000000000e+02 6.200000000000000000e+01
4.440000000000000000e+02 6.200000000000000000e+01
5.730000000000000000e+02 6.200000000000000000e+01
5.740000000000000000e+02 6.200000000000000000e+01
5.750000000000000000e+02 6.200000000000000000e+01
5.760000000000000000e+02 6.200000000000000000e+01
6.950000000000000000e+02 6.200000000000000000e+01
6.960000000000000000e+02 6.200000000000000000e+01
6.970000000000000000e+02 6.200000000000000000e+01
8.230000000000000000e+02 6.200000000000000000e+01
8.240000000000000000e+02 6.200000000000000000e+01
8.250000000000000000e+02 6.200000000000000000e+01
9.600000000000000000e+02 6.200000000000000000e+01
9.610000000000000000e+02 6.200000000000000000e+01
9.620000000000000000e+02 6.200000000000000000e+01
9.630000000000000000e+02 6.200000000000000000e+01
1.000000000000000000e+01 6.300000000000000000e+01
1.100000000000000000e+01 6.300000000000000000e+01
1.200000000000000000e+01 6.300000000000000000e+01
2.200000000000000000e+01 6.300000000000000000e+01
2.300000000000000000e+01 6.300000000000000000e+01
2.400000000000000000e+01 6.300000000000000000e+01
2.500000000000000000e+01 6.300000000000000000e+01
1.550000000000000000e+02 6.300000000000000000e+01
1.560000000000000000e+02 6.300000000000000000e+01
1.570000000000000000e+02 6.300000000000000000e+01
1.580000000000000000e+02 6.300000000000000000e+01
2.960000000000000000e+02 6.300000000000000000e+01
2.970000000000000000e+02 6.300000000000000000e+01
2.980000000000000000e+02 6.300000000000000000e+01
2.990000000000000000e+02 6.300000000000000000e+01
4.410000000000000000e+02 6.300000000000000000e+01
4.420000000000000000e+02 6.300000000000000000e+01
4.430000000000000000e+02 6.300000000000000000e+01
4.440000000000000000e+02 6.300000000000000000e+01
5.730000000000000000e+02 6.300000000000000000e+01
5.740000000000000000e+02 6.300000000000000000e+01
5.750000000000000000e+02 6.300000000000000000e+01
5.760000000000000000e+02 6.300000000000000000e+01
6.950000000000000000e+02 6.300000000000000000e+01
6.960000000000000000e+02 6.300000000000000000e+01
6.970000000000000000e+02 6.300000000000000000e+01
6.980000000000000000e+02 6.300000000000000000e+01
8.230000000000000000e+02 6.300000000000000000e+01
8.240000000000000000e+02 6.300000000000000000e+01
8.250000000000000000e+02 6.300000000000000000e+01
8.260000000000000000e+02 6.300000000000000000e+01
9.600000000000000000e+02 6.300000000000000000e+01
9.610000000000000000e+02 6.300000000000000000e+01
9.620000000000000000e+02 6.300000000000000000e+01
9.630000000000000000e+02 6.300000000000000000e+01
1.000000000000000000e+01 6.400000000000000000e+01
1.100000000000000000e+01 6.400000000000000000e+01
1.200000000000000000e+01 6.400000000000000000e+01
2.200000000000000000e+01 6.400000000000000000e+01
2.300000000000000000e+01 6.400000000000000000e+01
2.400000000000000000e+01 6.400000000000000000e+01
2.500000000000000000e+01 6.400000000000000000e+01
1.550000000000000000e+02 6.400000000000000000e+01
1.560000000000000000e+02 6.400000000000000000e+01
1.570000000000000000e+02 6.400000000000000000e+01
1.580000000000000000e+02 6.400000000000000000e+01
2.960000000000000000e+02 6.400000000000000000e+01
2.970000000000000000e+02 6.400000000000000000e+01
2.980000000000000000e+02 6.400000000000000000e+01
2.990000000000000000e+02 6.400000000000000000e+01
4.410000000000000000e+02 6.400000000000000000e+01
4.420000000000000000e+02 6.400000000000000000e+01
4.430000000000000000e+02 6.400000000000000000e+01
4.440000000000000000e+02 6.400000000000000000e+01
5.730000000000000000e+02 6.400000000000000000e+01
5.740000000000000000e+02 6.400000000000000000e+01
5.750000000000000000e+02 6.400000000000000000e+01
5.760000000000000000e+02 6.400000000000000000e+01
6.950000000000000000e+02 6.400000000000000000e+01
6.960000000000000000e+02 6.400000000000000000e+01
6.970000000000000000e+02 6.400000000000000000e+01
6.980000000000000000e+02 6.400000000000000000e+01
8.230000000000000000e+02 6.400000000000000000e+01
8.240000000000000000e+02 6.400000000000000000e+01
8.250000000000000000e+02 6.400000000000000000e+01
8.260000000000000000e+02 6.400000000000000000e+01
9.600000000000000000e+02 6.400000000000000000e+01
9.610000000000000000e+02 6.400000000000000000e+01
9.620000000000000000e+02 6.400000000000000000e+01
9.630000000000000000e+02 6.400000000000000000e+01
1.000000000000000000e+01 6.500000000000000000e+01
1.100000000000000000e+01 6.500000000000000000e+01
1.200000000000000000e+01 6.500000000000000000e+01
2.100000000000000000e+01 6.500000000000000000e+01
2.200000000000000000e+01 6.500000000000000000e+01
2.300000000000000000e+01 6.500000000000000000e+01
2.400000000000000000e+01 6.500000000000000000e+01
2.500000000000000000e+01 6.500000000000000000e+01
2.600000000000000000e+01 6.500000000000000000e+01
1.550000000000000000e+02 6.500000000000000000e+01
1.560000000000000000e+02 6.500000000000000000e+01
1.570000000000000000e+02 6.500000000000000000e+01
1.580000000000000000e+02 6.500000000000000000e+01
2.960000000000000000e+02 6.500000000000000000e+01
2.970000000000000000e+02 6.500000000000000000e+01
2.980000000000000000e+02 6.500000000000000000e+01
2.990000000000000000e+02 6.500000000000000000e+01
4.410000000000000000e+02 6.500000000000000000e+01
4.420000000000000000e+02 6.500000000000000000e+01
4.430000000000000000e+02 6.500000000000000000e+01
4.440000000000000000e+02 6.500000000000000000e+01
5.730000000000000000e+02 6.500000000000000000e+01
5.740000000000000000e+02 6.500000000000000000e+01
5.750000000000000000e+02 6.500000000000000000e+01
5.760000000000000000e+02 6.500000000000000000e+01
6.950000000000000000e+02 6.500000000000000000e+01
6.960000000000000000e+02 6.500000000000000000e+01
6.970000000000000000e+02 6.500000000000000000e+01
6.980000000000000000e+02 6.500000000000000000e+01
8.230000000000000000e+02 6.500000000000000000e+01
8.240000000000000000e+02 6.500000000000000000e+01
8.250000000000000000e+02 6.500000000000000000e+01
8.260000000000000000e+02 6.500000000000000000e+01
9.590000000000000000e+02 6.500000000000000000e+01
9.600000000000000000e+02 6.500000000000000000e+01
9.610000000000000000e+02 6.500000000000000000e+01
9.620000000000000000e+02 6.500000000000000000e+01
9.630000000000000000e+02 6.500000000000000000e+01
1.000000000000000000e+01 6.600000000000000000e+01
1.100000000000000000e+01 6.600000000000000000e+01
1.200000000000000000e+01 6.600000000000000000e+01
2.100000000000000000e+01 6.600000000000000000e+01
2.200000000000000000e+01 6.600000000000000000e+01
2.300000000000000000e+01 6.600000000000000000e+01
2.400000000000000000e+01 6.600000000000000000e+01
2.500000000000000000e+01 6.600000000000000000e+01
2.600000000000000000e+01 6.600000000000000000e+01
1.550000000000000000e+02 6.600000000000000000e+01
1.560000000000000000e+02 6.600000000000000000e+01
1.570000000000000000e+02 6.600000000000000000e+01
1.580000000000000000e+02 6.600000000000000000e+01
2.960000000000000000e+02 6.600000000000000000e+01
2.970000000000000000e+02 6.600000000000000000e+01
2.980000000000000000e+02 6.600000000000000000e+01
2.990000000000000000e+02 6.600000000000000000e+01
4.410000000000000000e+02 6.600000000000000000e+01
4.420000000000000000e+02 6.600000000000000000e+01
4.430000000000000000e+02 6.600000000000000000e+01
4.440000000000000000e+02 6.600000000000000000e+01
5.730000000000000000e+02 6.600000000000000000e+01
5.740000000000000000e+02 6.600000000000000000e+01
5.750000000000000000e+02 6.600000000000000000e+01
5.760000000000000000e+02 6.600000000000000000e+01
6.940000000000000000e+02 6.600000000000000000e+01
6.950000000000000000e+02 6.600000000000000000e+01
6.960000000000000000e+02 6.600000000000000000e+01
6.970000000000000000e+02 6.600000000000000000e+01
6.980000000000000000e+02 6.600000000000000000e+01
8.230000000000000000e+02 6.600000000000000000e+01
8.240000000000000000e+02 6.600000000000000000e+01
8.250000000000000000e+02 6.600000000000000000e+01
8.260000000000000000e+02 6.600000000000000000e+01
9.590000000000000000e+02 6.600000000000000000e+01
9.600000000000000000e+02 6.600000000000000000e+01
9.610000000000000000e+02 6.600000000000000000e+01
9.620000000000000000e+02 6.600000000000000000e+01
9.630000000000000000e+02 6.600000000000000000e+01
1.000000000000000000e+01 6.700000000000000000e+01
1.100000000000000000e+01 6.700000000000000000e+01
1.200000000000000000e+01 6.700000000000000000e+01
2.100000000000000000e+01 6.700000000000000000e+01
2.200000000000000000e+01 6.700000000000000000e+01
2.300000000000000000e+01 6.700000000000000000e+01
2.400000000000000000e+01 6.700000000000000000e+01
2.500000000000000000e+01 6.700000000000000000e+01
2.600000000000000000e+01 6.700000000000000000e+01
1.550000000000000000e+02 6.700000000000000000e+01
1.560000000000000000e+02 6.700000000000000000e+01
1.570000000000000000e+02 6.700000000000000000e+01
1.580000000000000000e+02 6.700000000000000000e+01
2.960000000000000000e+02 6.700000000000000000e+01
2.970000000000000000e+02 6.700000000000000000e+01
2.980000000000000000e+02 6.700000000000000000e+01
2.990000000000000000e+02 6.700000000000000000e+01
3.000000000000000000e+02 6.700000000000000000e+01
4.400000000000000000e+02 6.700000000000000000e+01
4.410000000000000000e+02 6.700000000000000000e+01
4.420000000000000000e+02 6.700000000000000000e+01
4.430000000000000000e+02 6.700000000000000000e+01
4.440000000000000000e+02 6.700000000000000000e+01
5.730000000000000000e+02 6.700000000000000000e+01
5.740000000000000000e+02 6.700000000000000000e+01
5.750000000000000000e+02 6.700000000000000000e+01
5.760000000000000000e+02 6.700000000000000000e+01
6.940000000000000000e+02 6.700000000000000000e+01
6.950000000000000000e+02 6.700000000000000000e+01
6.960000000000000000e+02 6.700000000000000000e+01
6.970000000000000000e+02 6.700000000000000000e+01
6.980000000000000000e+02 6.700000000000000000e+01
8.220000000000000000e+02 6.700000000000000000e+01
8.230000000000000000e+02 6.700000000000000000e+01
8.240000000000000000e+02 6.700000000000000000e+01
8.250000000000000000e+02 6.700000000000000000e+01
8.260000000000000000e+02 6.700000000000000000e+01
9.590000000000000000e+02 6.700000000000000000e+01
9.600000000000000000e+02 6.700000000000000000e+01
9.610000000000000000e+02 6.700000000000000000e+01
9.620000000000000000e+02 6.700000000000000000e+01
9.630000000000000000e+02 6.700000000000000000e+01
1.000000000000000000e+01 6.800000000000000000e+01
1.100000000000000000e+01 6.800000000000000000e+01
1.200000000000000000e+01 6.800000000000000000e+01
2.100000000000000000e+01 6.800000000000000000e+01
2.200000000000000000e+01 6.800000000000000000e+01
2.300000000000000000e+01 6.800000000000000000e+01
2.400000000000000000e+01 6.800000000000000000e+01
2.500000000000000000e+01 6.800000000000000000e+01
2.600000000000000000e+01 6.800000000000000000e+01
1.550000000000000000e+02 6.800000000000000000e+01
1.560000000000000000e+02 6.800000000000000000e+01
1.570000000000000000e+02 6.800000000000000000e+01
1.580000000000000000e+02 6.800000000000000000e+01
2.960000000000000000e+02 6.800000000000000000e+01
2.970000000000000000e+02 6.800000000000000000e+01
2.980000000000000000e+02 6.800000000000000000e+01
2.990000000000000000e+02 6.800000000000000000e+01
3.000000000000000000e+02 6.800000000000000000e+01
4.400000000000000000e+02 6.800000000000000000e+01
4.410000000000000000e+02 6.800000000000000000e+01
4.420000000000000000e+02 6.800000000000000000e+01
4.430000000000000000e+02 6.800000000000000000e+01
4.440000000000000000e+02 6.800000000000000000e+01
5.720000000000000000e+02 6.800000000000000000e+01
5.730000000000000000e+02 6.800000000000000000e+01
5.740000000000000000e+02 6.800000000000000000e+01
5.750000000000000000e+02 6.800000000000000000e+01
5.760000000000000000e+02 6.800000000000000000e+01
6.940000000000000000e+02 6.800000000000000000e+01
6.950000000000000000e+02 6.800000000000000000e+01
6.960000000000000000e+02 6.800000000000000000e+01
6.970000000000000000e+02 6.800000000000000000e+01
6.980000000000000000e+02 6.800000000000000000e+01
8.220000000000000000e+02 6.800000000000000000e+01
8.230000000000000000e+02 6.800000000000000000e+01
8.240000000000000000e+02 6.800000000000000000e+01
8.250000000000000000e+02 6.800000000000000000e+01
8.260000000000000000e+02 6.800000000000000000e+01
9.590000000000000000e+02 6.800000000000000000e+01
9.600000000000000000e+02 6.800000000000000000e+01
9.610000000000000000e+02 6.800000000000000000e+01
9.620000000000000000e+02 6.800000000000000000e+01
9.630000000000000000e+02 6.800000000000000000e+01
1.000000000000000000e+01 6.900000000000000000e+01
1.100000000000000000e+01 6.900000000000000000e+01
1.200000000000000000e+01 6.900000000000000000e+01
2.100000000000000000e+01 6.900000000000000000e+01
2.200000000000000000e+01 6.900000000000000000e+01
2.300000000000000000e+01 6.900000000000000000e+01
2.400000000000000000e+01 6.900000000000000000e+01
2.500000000000000000e+01 6.900000000000000000e+01
2.600000000000000000e+01 6.900000000000000000e+01
1.550000000000000000e+02 6.900000000000000000e+01
1.560000000000000000e+02 6.900000000000000000e+01
1.570000000000000000e+02 6.900000000000000000e+01
1.580000000000000000e+02 6.900000000000000000e+01
2.960000000000000000e+02 6.900000000000000000e+01
2.970000000000000000e+02 6.900000000000000000e+01
2.980000000000000000e+02 6.900000000000000000e+01
2.990000000000000000e+02 6.900000000000000000e+01
3.000000000000000000e+02 6.900000000000000000e+01
4.400000000000000000e+02 6.900000000000000000e+01
4.410000000000000000e+02 6.900000000000000000e+01
4.420000000000000000e+02 6.900000000000000000e+01
4.430000000000000000e+02 6.900000000000000000e+01
4.440000000000000000e+02 6.900000000000000000e+01
5.720000000000000000e+02 6.900000000000000000e+01
5.730000000000000000e+02 6.900000000000000000e+01
5.740000000000000000e+02 6.900000000000000000e+01
5.750000000000000000e+02 6.900000000000000000e+01
5.760000000000000000e+02 6.900000000000000000e+01
6.940000000000000000e+02 6.900000000000000000e+01
6.950000000000000000e+02 6.900000000000000000e+01
6.960000000000000000e+02 6.900000000000000000e+01
6.970000000000000000e+02 6.900000000000000000e+01
6.980000000000000000e+02 6.900000000000000000e+01
8.220000000000000000e+02 6.900000000000000000e+01
8.230000000000000000e+02 6.900000000000000000e+01
8.240000000000000000e+02 6.900000000000000000e+01
8.250000000000000000e+02 6.900000000000000000e+01
8.260000000000000000e+02 6.900000000000000000e+01
9.590000000000000000e+02 6.900000000000000000e+01
9.600000000000000000e+02 6.900000000000000000e+01
9.610000000000000000e+02 6.900000000000000000e+01
9.620000000000000000e+02 6.900000000000000000e+01
9.630000000000000000e+02 6.900000000000000000e+01
1.000000000000000000e+01 7.000000000000000000e+01
1.100000000000000000e+01 7.000000000000000000e+01
1.200000000000000000e+01 7.000000000000000000e+01
2.100000000000000000e+01 7.000000000000000000e+01
2.200000000000000000e+01 7.000000000000000000e+01
2.300000000000000000e+01 7.000000000000000000e+01
2.400000000000000000e+01 7.000000000000000000e+01
2.500000000000000000e+01 7.000000000000000000e+01
2.600000000000000000e+01 7.000000000000000000e+01
1.550000000000000000e+02 7.000000000000000000e+01
1.560000000000000000e+02 7.000000000000000000e+01
1.570000000000000000e+02 7.000000000000000000e+01
1.580000000000000000e+02 7.000000000000000000e+01
2.960000000000000000e+02 7.000000000000000000e+01
2.970000000000000000e+02 7.000000000000000000e+01
2.980000000000000000e+02 7.000000000000000000e+01
2.990000000000000000e+02 7.000000000000000000e+01
3.000000000000000000e+02 7.000000000000000000e+01
4.400000000000000000e+02 7.000000000000000000e+01
4.410000000000000000e+02 7.000000000000000000e+01
4.420000000000000000e+02 7.000000000000000000e+01
4.430000000000000000e+02 7.000000000000000000e+01
4.440000000000000000e+02 7.000000000000000000e+01
5.720000000000000000e+02 7.000000000000000000e+01
5.730000000000000000e+02 7.000000000000000000e+01
5.740000000000000000e+02 7.000000000000000000e+01
5.750000000000000000e+02 7.000000000000000000e+01
5.760000000000000000e+02 7.000000000000000000e+01
6.940000000000000000e+02 7.000000000000000000e+01
6.950000000000000000e+02 7.000000000000000000e+01
6.960000000000000000e+02 7.000000000000000000e+01
6.970000000000000000e+02 7.000000000000000000e+01
6.980000000000000000e+02 7.000000000000000000e+01
8.220000000000000000e+02 7.000000000000000000e+01
8.230000000000000000e+02 7.000000000000000000e+01
8.240000000000000000e+02 7.000000000000000000e+01
8.250000000000000000e+02 7.000000000000000000e+01
8.260000000000000000e+02 7.000000000000000000e+01
9.590000000000000000e+02 7.000000000000000000e+01
9.600000000000000000e+02 7.000000000000000000e+01
9.610000000000000000e+02 7.000000000000000000e+01
9.620000000000000000e+02 7.000000000000000000e+01
9.630000000000000000e+02 7.000000000000000000e+01
1.000000000000000000e+01 7.100000000000000000e+01
1.100000000000000000e+01 7.100000000000000000e+01
1.200000000000000000e+01 7.100000000000000000e+01
2.100000000000000000e+01 7.100000000000000000e+01
2.200000000000000000e+01 7.100000000000000000e+01
2.300000000000000000e+01 7.100000000000000000e+01
2.400000000000000000e+01 7.100000000000000000e+01
2.500000000000000000e+01 7.100000000000000000e+01
2.600000000000000000e+01 7.100000000000000000e+01
1.540000000000000000e+02 7.100000000000000000e+01
1.550000000000000000e+02 7.100000000000000000e+01
1.560000000000000000e+02 7.100000000000000000e+01
1.570000000000000000e+02 7.100000000000000000e+01
1.580000000000000000e+02 7.100000000000000000e+01
2.960000000000000000e+02 7.100000000000000000e+01
2.970000000000000000e+02 7.100000000000000000e+01
2.980000000000000000e+02 7.100000000000000000e+01
2.990000000000000000e+02 7.100000000000000000e+01
3.000000000000000000e+02 7.100000000000000000e+01
4.400000000000000000e+02 7.100000000000000000e+01
4.410000000000000000e+02 7.100000000000000000e+01
4.420000000000000000e+02 7.100000000000000000e+01
4.430000000000000000e+02 7.100000000000000000e+01
4.440000000000000000e+02 7.100000000000000000e+01
5.720000000000000000e+02 7.100000000000000000e+01
5.730000000000000000e+02 7.100000000000000000e+01
5.740000000000000000e+02 7.100000000000000000e+01
5.750000000000000000e+02 7.100000000000000000e+01
5.760000000000000000e+02 7.100000000000000000e+01
6.940000000000000000e+02 7.100000000000000000e+01
6.950000000000000000e+02 7.100000000000000000e+01
6.960000000000000000e+02 7.100000000000000000e+01
6.970000000000000000e+02 7.100000000000000000e+01
6.980000000000000000e+02 7.100000000000000000e+01
8.220000000000000000e+02 7.100000000000000000e+01
8.230000000000000000e+02 7.100000000000000000e+01
8.240000000000000000e+02 7.100000000000000000e+01
8.250000000000000000e+02 7.100000000000000000e+01
8.260000000000000000e+02 7.100000000000000000e+01
9.590000000000000000e+02 7.100000000000000000e+01
9.600000000000000000e+02 7.100000000000000000e+01
9.610000000000000000e+02 7.100000000000000000e+01
9.620000000000000000e+02 7.100000000000000000e+01
9.630000000000000000e+02 7.100000000000000000e+01
1.000000000000000000e+01 7.200000000000000000e+01
1.100000000000000000e+01 7.200000000000000000e+01
1.200000000000000000e+01 7.200000000000000000e+01
2.100000000000000000e+01 7.200000000000000000e+01
2.200000000000000000e+01 7.200000000000000000e+01
2.300000000000000000e+01 7.200000000000000000e+01
2.400000000000000000e+01 7.200000000000000000e+01
2.500000000000000000e+01 7.200000000000000000e+01
2.600000000000000000e+01 7.200000000000000000e+01
1.540000000000000000e+02 7.200000000000000000e+01
1.550000000000000000e+02 7.200000000000000000e+01
1.560000000000000000e+02 7.200000000000000000e+01
1.570000000000000000e+02 7.200000000000000000e+01
1.580000000000000000e+02 7.200000000000000000e+01
1.590000000000000000e+02 7.200000000000000000e+01
2.960000000000000000e+02 7.200000000000000000e+01
2.970000000000000000e+02 7.200000000000000000e+01
2.980000000000000000e+02 7.200000000000000000e+01
2.990000000000000000e+02 7.200000000000000000e+01
3.000000000000000000e+02 7.200000000000000000e+01
4.400000000000000000e+02 7.200000000000000000e+01
4.410000000000000000e+02 7.200000000000000000e+01
4.420000000000000000e+02 7.200000000000000000e+01
4.430000000000000000e+02 7.200000000000000000e+01
4.440000000000000000e+02 7.200000000000000000e+01
5.720000000000000000e+02 7.200000000000000000e+01
5.730000000000000000e+02 7.200000000000000000e+01
5.740000000000000000e+02 7.200000000000000000e+01
5.750000000000000000e+02 7.200000000000000000e+01
5.760000000000000000e+02 7.200000000000000000e+01
6.940000000000000000e+02 7.200000000000000000e+01
6.950000000000000000e+02 7.200000000000000000e+01
6.960000000000000000e+02 7.200000000000000000e+01
6.970000000000000000e+02 7.200000000000000000e+01
6.980000000000000000e+02 7.200000000000000000e+01
8.220000000000000000e+02 7.200000000000000000e+01
8.230000000000000000e+02 7.200000000000000000e+01
8.240000000000000000e+02 7.200000000000000000e+01
8.250000000000000000e+02 7.200000000000000000e+01
8.260000000000000000e+02 7.200000000000000000e+01
9.590000000000000000e+02 7.200000000000000000e+01
9.600000000000000000e+02 7.200000000000000000e+01
9.610000000000000000e+02 7.200000000000000000e+01
9.620000000000000000e+02 7.200000000000000000e+01
9.630000000000000000e+02 7.200000000000000000e+01
1.000000000000000000e+01 7.300000000000000000e+01
1.100000000000000000e+01 7.300000000000000000e+01
1.200000000000000000e+01 7.300000000000000000e+01
2.100000000000000000e+01 7.300000000000000000e+01
2.200000000000000000e+01 7.300000000000000000e+01
2.300000000000000000e+01 7.300000000000000000e+01
2.400000000000000000e+01 7.300000000000000000e+01
2.500000000000000000e+01 7.300000000000000000e+01
2.600000000000000000e+01 7.300000000000000000e+01
1.540000000000000000e+02 7.300000000000000000e+01
1.550000000000000000e+02 7.300000000000000000e+01
1.560000000000000000e+02 7.300000000000000000e+01
1.570000000000000000e+02 7.300000000000000000e+01
1.580000000000000000e+02 7.300000000000000000e+01
1.590000000000000000e+02 7.300000000000000000e+01
2.950000000000000000e+02 7.300000000000000000e+01
2.960000000000000000e+02 7.300000000000000000e+01
2.970000000000000000e+02 7.300000000000000000e+01
2.980000000000000000e+02 7.300000000000000000e+01
2.990000000000000000e+02 7.300000000000000000e+01
3.000000000000000000e+02 7.300000000000000000e+01
4.400000000000000000e+02 7.300000000000000000e+01
4.410000000000000000e+02 7.300000000000000000e+01
4.420000000000000000e+02 7.300000000000000000e+01
4.430000000000000000e+02 7.300000000000000000e+01
4.440000000000000000e+02 7.300000000000000000e+01
5.720000000000000000e+02 7.300000000000000000e+01
5.730000000000000000e+02 7.300000000000000000e+01
5.740000000000000000e+02 7.300000000000000000e+01
5.750000000000000000e+02 7.300000000000000000e+01
5.760000000000000000e+02 7.300000000000000000e+01
6.940000000000000000e+02 7.300000000000000000e+01
6.950000000000000000e+02 7.300000000000000000e+01
6.960000000000000000e+02 7.300000000000000000e+01
6.970000000000000000e+02 7.300000000000000000e+01
6.980000000000000000e+02 7.300000000000000000e+01
8.220000000000000000e+02 7.300000000000000000e+01
8.230000000000000000e+02 7.300000000000000000e+01
8.240000000000000000e+02 7.300000000000000000e+01
8.250000000000000000e+02 7.300000000000000000e+01
8.260000000000000000e+02 7.300000000000000000e+01
9.590000000000000000e+02 7.300000000000000000e+01
9.600000000000000000e+02 7.300000000000000000e+01
9.610000000000000000e+02 7.300000000000000000e+01
9.620000000000000000e+02 7.300000000000000000e+01
9.630000000000000000e+02 7.300000000000000000e+01
1.000000000000000000e+01 7.400000000000000000e+01
1.100000000000000000e+01 7.400000000000000000e+01
1.200000000000000000e+01 7.400000000000000000e+01
2.100000000000000000e+01 7.400000000000000000e+01
2.200000000000000000e+01 7.400000000000000000e+01
2.300000000000000000e+01 7.400000000000000000e+01
2.400000000000000000e+01 7.400000000000000000e+01
2.500000000000000000e+01 7.400000000000000000e+01
2.600000000000000000e+01 7.400000000000000000e+01
1.540000000000000000e+02 7.400000000000000000e+01
1.550000000000000000e+02 7.400000000000000000e+01
1.560000000000000000e+02 7.400000000000000000e+01
1.570000000000000000e+02 7.400000000000000000e+01
1.580000000000000000e+02 7.400000000000000000e+01
1.590000000000000000e+02 7.400000000000000000e+01
2.950000000000000000e+02 7.400000000000000000e+01
2.960000000000000000e+02 7.400000000000000000e+01
2.970000000000000000e+02 7.400000000000000000e+01
2.980000000000000000e+02 7.400000000000000000e+01
2.990000000000000000e+02 7.400000000000000000e+01
3.000000000000000000e+02 7.400000000000000000e+01
4.400000000000000000e+02 7.400000000000000000e+01
4.410000000000000000e+02 7.400000000000000000e+01
4.420000000000000000e+02 7.400000000000000000e+01
4.430000000000000000e+02 7.400000000000000000e+01
4.440000000000000000e+02 7.400000000000000000e+01
5.720000000000000000e+02 7.400000000000000000e+01
5.730000000000000000e+02 7.400000000000000000e+01
5.740000000000000000e+02 7.400000000000000000e+01
5.750000000000000000e+02 7.400000000000000000e+01
5.760000000000000000e+02 7.400000000000000000e+01
6.940000000000000000e+02 7.400000000000000000e+01
6.950000000000000000e+02 7.400000000000000000e+01
6.960000000000000000e+02 7.400000000000000000e+01
6.970000000000000000e+02 7.400000000000000000e+01
6.980000000000000000e+02 7.400000000000000000e+01
8.220000000000000000e+02 7.400000000000000000e+01
8.230000000000000000e+02 7.400000000000000000e+01
8.240000000000000000e+02 7.400000000000000000e+01
8.250000000000000000e+02 7.400000000000000000e+01
8.260000000000000000e+02 7.400000000000000000e+01
9.590000000000000000e+02 7.400000000000000000e+01
9.600000000000000000e+02 7.400000000000000000e+01
9.610000000000000000e+02 7.400000000000000000e+01
9.620000000000000000e+02 7.400000000000000000e+01
9.630000000000000000e+02 7.400000000000000000e+01
1.000000000000000000e+01 7.500000000000000000e+01
1.100000000000000000e+01 7.500000000000000000e+01
1.200000000000000000e+01 7.500000000000000000e+01
2.100000000000000000e+01 7.500000000000000000e+01
2.200000000000000000e+01 7.500000000000000000e+01
2.300000000000000000e+01 7.500000000000000000e+01
2.400000000000000000e+01 7.500000000000000000e+01
2.500000000000000000e+01 7.500000000000000000e+01
2.600000000000000000e+01 7.500000000000000000e+01
1.540000000000000000e+02 7.500000000000000000e+01
1.550000000000000000e+02 7.500000000000000000e+01
1.560000000000000000e+02 7.500000000000000000e+01
1.570000000000000000e+02 7.500000000000000000e+01
1.580000000000000000e+02 7.500000000000000000e+01
1.590000000000000000e+02 7.500000000000000000e+01
2.950000000000000000e+02 7.500000000000000000e+01
2.960000000000000000e+02 7.500000000000000000e+01
2.970000000000000000e+02 7.500000000000000000e+01
2.980000000000000000e+02 7.500000000000000000e+01
2.990000000000000000e+02 7.500000000000000000e+01
3.000000000000000000e+02 7.500000000000000000e+01
4.400000000000000000e+02 7.500000000000000000e+01
4.410000000000000000e+02 7.500000000000000000e+01
4.420000000000000000e+02 7.500000000000000000e+01
4.430000000000000000e+02 7.500000000000000000e+01
4.440000000000000000e+02 7.500000000000000000e+01
5.720000000000000000e+02 7.500000000000000000e+01
5.730000000000000000e+02 7.500000000000000000e+01
5.740000000000000000e+02 7.500000000000000000e+01
5.750000000000000000e+02 7.500000000000000000e+01
5.760000000000000000e+02 7.500000000000000000e+01
6.940000000000000000e+02 7.500000000000000000e+01
6.950000000000000000e+02 7.500000000000000000e+01
6.960000000000000000e+02 7.500000000000000000e+01
6.970000000000000000e+02 7.500000000000000000e+01
6.980000000000000000e+02 7.500000000000000000e+01
8.220000000000000000e+02 7.500000000000000000e+01
8.230000000000000000e+02 7.500000000000000000e+01
8.240000000000000000e+02 7.500000000000000000e+01
8.250000000000000000e+02 7.500000000000000000e+01
8.260000000000000000e+02 7.500000000000000000e+01
9.590000000000000000e+02 7.500000000000000000e+01
9.600000000000000000e+02 7.500000000000000000e+01
9.610000000000000000e+02 7.500000000000000000e+01
9.620000000000000000e+02 7.500000000000000000e+01
9.630000000000000000e+02 7.500000000000000000e+01
1.000000000000000000e+01 7.600000000000000000e+01
1.100000000000000000e+01 7.600000000000000000e+01
1.200000000000000000e+01 7.600000000000000000e+01
2.100000000000000000e+01 7.600000000000000000e+01
2.200000000000000000e+01 7.600000000000000000e+01
2.300000000000000000e+01 7.600000000000000000e+01
2.400000000000000000e+01 7.600000000000000000e+01
2.500000000000000000e+01 7.600000000000000000e+01
2.600000000000000000e+01 7.600000000000000000e+01
1.540000000000000000e+02 7.600000000000000000e+01
1.550000000000000000e+02 7.600000000000000000e+01
1.560000000000000000e+02 7.600000000000000000e+01
1.570000000000000000e+02 7.600000000000000000e+01
1.580000000000000000e+02 7.600000000000000000e+01
1.590000000000000000e+02 7.600000000000000000e+01
2.950000000000000000e+02 7.600000000000000000e+01
2.960000000000000000e+02 7.600000000000000000e+01
2.970000000000000000e+02 7.600000000000000000e+01
2.980000000000000000e+02 7.600000000000000000e+01
2.990000000000000000e+02 7.600000000000000000e+01
3.000000000000000000e+02 7.600000000000000000e+01
4.400000000000000000e+02 7.600000000000000000e+01
4.410000000000000000e+02 7.600000000000000000e+01
4.420000000000000000e+02 7.600000000000000000e+01
4.430000000000000000e+02 7.600000000000000000e+01
4.440000000000000000e+02 7.600000000000000000e+01
5.720000000000000000e+02 7.600000000000000000e+01
5.730000000000000000e+02 7.600000000000000000e+01
5.740000000000000000e+02 7.600000000000000000e+01
5.750000000000000000e+02 7.600000000000000000e+01
5.760000000000000000e+02 7.600000000000000000e+01
5.770000000000000000e+02 7.600000000000000000e+01
6.930000000000000000e+02 7.600000000000000000e+01
6.940000000000000000e+02 7.600000000000000000e+01
6.950000000000000000e+02 7.600000000000000000e+01
6.960000000000000000e+02 7.600000000000000000e+01
6.970000000000000000e+02 7.600000000000000000e+01
6.980000000000000000e+02 7.600000000000000000e+01
8.220000000000000000e+02 7.600000000000000000e+01
8.230000000000000000e+02 7.600000000000000000e+01
8.240000000000000000e+02 7.600000000000000000e+01
8.250000000000000000e+02 7.600000000000000000e+01
8.260000000000000000e+02 7.600000000000000000e+01
9.590000000000000000e+02 7.600000000000000000e+01
9.600000000000000000e+02 7.600000000000000000e+01
9.610000000000000000e+02 7.600000000000000000e+01
9.620000000000000000e+02 7.600000000000000000e+01
9.630000000000000000e+02 7.600000000000000000e+01
1.000000000000000000e+01 7.700000000000000000e+01
1.100000000000000000e+01 7.700000000000000000e+01
1.200000000000000000e+01 7.700000000000000000e+01
2.100000000000000000e+01 7.700000000000000000e+01
2.200000000000000000e+01 7.700000000000000000e+01
2.300000000000000000e+01 7.700000000000000000e+01
2.400000000000000000e+01 7.700000000000000000e+01
2.500000000000000000e+01 7.700000000000000000e+01
2.600000000000000000e+01 7.700000000000000000e+01
1.540000000000000000e+02 7.700000000000000000e+01
1.550000000000000000e+02 7.700000000000000000e+01
1.560000000000000000e+02 7.700000000000000000e+01
1.570000000000000000e+02 7.700000000000000000e+01
1.580000000000000000e+02 7.700000000000000000e+01
1.590000000000000000e+02 7.700000000000000000e+01
2.950000000000000000e+02 7.700000000000000000e+01
2.960000000000000000e+02 7.700000000000000000e+01
2.970000000000000000e+02 7.700000000000000000e+01
2.980000000000000000e+02 7.700000000000000000e+01
2.990000000000000000e+02 7.700000000000000000e+01
3.000000000000000000e+02 7.700000000000000000e+01
4.400000000000000000e+02 7.700000000000000000e+01
4.410000000000000000e+02 7.700000000000000000e+01
4.420000000000000000e+02 7.700000000000000000e+01
4.430000000000000000e+02 7.700000000000000000e+01
4.440000000000000000e+02 7.700000000000000000e+01
5.720000000000000000e+02 7.700000000000000000e+01
5.730000000000000000e+02 7.700000000000000000e+01
5.740000000000000000e+02 7.700000000000000000e+01
5.750000000000000000e+02 7.700000000000000000e+01
5.760000000000000000e+02 7.700000000000000000e+01
5.770000000000000000e+02 7.700000000000000000e+01
6.930000000000000000e+02 7.700000000000000000e+01
6.940000000000000000e+02 7.700000000000000000e+01
6.950000000000000000e+02 7.700000000000000000e+01
6.960000000000000000e+02 7.700000000000000000e+01
6.970000000000000000e+02 7.700000000000000000e+01
6.980000000000000000e+02 7.700000000000000000e+01
8.220000000000000000e+02 7.700000000000000000e+01
8.230000000000000000e+02 7.700000000000000000e+01
8.240000000000000000e+02 7.700000000000000000e+01
8.250000000000000000e+02 7.700000000000000000e+01
8.260000000000000000e+02 7.700000000000000000e+01
9.580000000000000000e+02 7.700000000000000000e+01
9.590000000000000000e+02 7.700000000000000000e+01
9.600000000000000000e+02 7.700000000000000000e+01
9.610000000000000000e+02 7.700000000000000000e+01
9.620000000000000000e+02 7.700000000000000000e+01
9.630000000000000000e+02 7.700000000000000000e+01
1.000000000000000000e+01 7.800000000000000000e+01
1.100000000000000000e+01 7.800000000000000000e+01
1.200000000000000000e+01 7.800000000000000000e+01
2.100000000000000000e+01 7.800000000000000000e+01
2.200000000000000000e+01 7.800000000000000000e+01
2.300000000000000000e+01 7.800000000000000000e+01
2.400000000000000000e+01 7.800000000000000000e+01
2.500000000000000000e+01 7.800000000000000000e+01
2.600000000000000000e+01 7.800000000000000000e+01
1.540000000000000000e+02 7.800000000000000000e+01
1.550000000000000000e+02 7.800000000000000000e+01
1.560000000000000000e+02 7.800000000000000000e+01
1.570000000000000000e+02 7.800000000000000000e+01
1.580000000000000000e+02 7.800000000000000000e+01
1.590000000000000000e+02 7.800000000000000000e+01
2.950000000000000000e+02 7.800000000000000000e+01
2.960000000000000000e+02 7.800000000000000000e+01
2.970000000000000000e+02 7.800000000000000000e+01
2.980000000000000000e+02 7.800000000000000000e+01
2.990000000000000000e+02 7.800000000000000000e+01
3.000000000000000000e+02 7.800000000000000000e+01
4.400000000000000000e+02 7.800000000000000000e+01
4.410000000000000000e+02 7.800000000000000000e+01
4.420000000000000000e+02 7.800000000000000000e+01
4.430000000000000000e+02 7.800000000000000000e+01
4.440000000000000000e+02 7.800000000000000000e+01
5.720000000000000000e+02 7.800000000000000000e+01
5.730000000000000000e+02 7.800000000000000000e+01
5.740000000000000000e+02 7.800000000000000000e+01
5.750000000000000000e+02 7.800000000000000000e+01
5.760000000000000000e+02 7.800000000000000000e+01
5.770000000000000000e+02 7.800000000000000000e+01
6.930000000000000000e+02 7.800000000000000000e+01
6.940000000000000000e+02 7.800000000000000000e+01
6.950000000000000000e+02 7.800000000000000000e+01
6.960000000000000000e+02 7.800000000000000000e+01
6.970000000000000000e+02 7.800000000000000000e+01
6.980000000000000000e+02 7.800000000000000000e+01
8.220000000000000000e+02 7.800000000000000000e+01
8.230000000000000000e+02 7.800000000000000000e+01
8.240000000000000000e+02 7.800000000000000000e+01
8.250000000000000000e+02 7.800000000000000000e+01
8.260000000000000000e+02 7.800000000000000000e+01
9.580000000000000000e+02 7.800000000000000000e+01
9.590000000000000000e+02 7.800000000000000000e+01
9.600000000000000000e+02 7.800000000000000000e+01
9.610000000000000000e+02 7.800000000000000000e+01
9.620000000000000000e+02 7.800000000000000000e+01
9.630000000000000000e+02 7.800000000000000000e+01
1.000000000000000000e+01 7.900000000000000000e+01
1.100000000000000000e+01 7.900000000000000000e+01
1.200000000000000000e+01 7.900000000000000000e+01
2.100000000000000000e+01 7.900000000000000000e+01
2.200000000000000000e+01 7.900000000000000000e+01
2.300000000000000000e+01 7.900000000000000000e+01
2.400000000000000000e+01 7.900000000000000000e+01
2.500000000000000000e+01 7.900000000000000000e+01
2.600000000000000000e+01 7.900000000000000000e+01
1.540000000000000000e+02 7.900000000000000000e+01
1.550000000000000000e+02 7.900000000000000000e+01
1.560000000000000000e+02 7.900000000000000000e+01
1.570000000000000000e+02 7.900000000000000000e+01
1.580000000000000000e+02 7.900000000000000000e+01
1.590000000000000000e+02 7.900000000000000000e+01
2.950000000000000000e+02 7.900000000000000000e+01
2.960000000000000000e+02 7.900000000000000000e+01
2.970000000000000000e+02 7.900000000000000000e+01
2.980000000000000000e+02 7.900000000000000000e+01
2.990000000000000000e+02 7.900000000000000000e+01
3.000000000000000000e+02 7.900000000000000000e+01
4.400000000000000000e+02 7.900000000000000000e+01
4.410000000000000000e+02 7.900000000000000000e+01
4.420000000000000000e+02 7.900000000000000000e+01
4.430000000000000000e+02 7.900000000000000000e+01
4.440000000000000000e+02 7.900000000000000000e+01
5.720000000000000000e+02 7.900000000000000000e+01
5.730000000000000000e+02 7.900000000000000000e+01
5.740000000000000000e+02 7.900000000000000000e+01
5.750000000000000000e+02 7.900000000000000000e+01
5.760000000000000000e+02 7.900000000000000000e+01
5.770000000000000000e+02 7.900000000000000000e+01
6.930000000000000000e+02 7.900000000000000000e+01
6.940000000000000000e+02 7.900000000000000000e+01
6.950000000000000000e+02 7.900000000000000000e+01
6.960000000000000000e+02 7.900000000000000000e+01
6.970000000000000000e+02 7.900000000000000000e+01
6.980000000000000000e+02 7.900000000000000000e+01
8.220000000000000000e+02 7.900000000000000000e+01
8.230000000000000000e+02 7.900000000000000000e+01
8.240000000000000000e+02 7.900000000000000000e+01
8.250000000000000000e+02 7.900000000000000000e+01
8.260000000000000000e+02 7.900000000000000000e+01
9.580000000000000000e+02 7.900000000000000000e+01
9.590000000000000000e+02 7.900000000000000000e+01
9.600000000000000000e+02 7.900000000000000000e+01
9.610000000000000000e+02 7.900000000000000000e+01
9.620000000000000000e+02 7.900000000000000000e+01
9.630000000000000000e+02 7.900000000000000000e+01
1.000000000000000000e+01 8.000000000000000000e+01
1.100000000000000000e+01 8.000000000000000000e+01
1.200000000000000000e+01 8.000000000000000000e+01
2.100000000000000000e+01 8.000000000000000000e+01
2.200000000000000000e+01 8.000000000000000000e+01
2.300000000000000000e+01 8.000000000000000000e+01
2.400000000000000000e+01 8.000000000000000000e+01
2.500000000000000000e+01 8.000000000000000000e+01
2.600000000000000000e+01 8.000000000000000000e+01
1.540000000000000000e+02 8.000000000000000000e+01
1.550000000000000000e+02 8.000000000000000000e+01
1.560000000000000000e+02 8.000000000000000000e+01
1.570000000000000000e+02 8.000000000000000000e+01
1.580000000000000000e+02 8.000000000000000000e+01
1.590000000000000000e+02 8.000000000000000000e+01
2.950000000000000000e+02 8.000000000000000000e+01
2.960000000000000000e+02 8.000000000000000000e+01
2.970000000000000000e+02 8.000000000000000000e+01
2.980000000000000000e+02 8.000000000000000000e+01
2.990000000000000000e+02 8.000000000000000000e+01
3.000000000000000000e+02 8.000000000000000000e+01
4.400000000000000000e+02 8.000000000000000000e+01
4.410000000000000000e+02 8.000000000000000000e+01
4.420000000000000000e+02 8.000000000000000000e+01
4.430000000000000000e+02 8.000000000000000000e+01
4.440000000000000000e+02 8.000000000000000000e+01
5.720000000000000000e+02 8.000000000000000000e+01
5.730000000000000000e+02 8.000000000000000000e+01
5.740000000000000000e+02 8.000000000000000000e+01
5.750000000000000000e+02 8.000000000000000000e+01
5.760000000000000000e+02 8.000000000000000000e+01
5.770000000000000000e+02 8.000000000000000000e+01
6.930000000000000000e+02 8.000000000000000000e+01
6.940000000000000000e+02 8.000000000000000000e+01
6.950000000000000000e+02 8.000000000000000000e+01
6.960000000000000000e+02 8.000000000000000000e+01
6.970000000000000000e+02 8.000000000000000000e+01
6.980000000000000000e+02 8.000000000000000000e+01
8.220000000000000000e+02 8.000000000000000000e+01
8.230000000000000000e+02 8.000000000000000000e+01
8.240000000000000000e+02 8.000000000000000000e+01
8.250000000000000000e+02 8.000000000000000000e+01
8.260000000000000000e+02 8.000000000000000000e+01
9.580000000000000000e+02 8.000000000000000000e+01
9.590000000000000000e+02 8.000000000000000000e+01
9.600000000000000000e+02 8.000000000000000000e+01
9.610000000000000000e+02 8.000000000000000000e+01
9.620000000000000000e+02 8.000000000000000000e+01
9.630000000000000000e+02 8.000000000000000000e+01
1.000000000000000000e+01 8.100000000000000000e+01
1.100000000000000000e+01 8.100000000000000000e+01
1.200000000000000000e+01 8.100000000000000000e+01
2.100000000000000000e+01 8.100000000000000000e+01
2.200000000000000000e+01 8.100000000000000000e+01
2.300000000000000000e+01 8.100000000000000000e+01
2.400000000000000000e+01 8.100000000000000000e+01
2.500000000000000000e+01 8.100000000000000000e+01
2.600000000000000000e+01 8.100000000000000000e+01
1.540000000000000000e+02 8.100000000000000000e+01
1.550000000000000000e+02 8.100000000000000000e+01
1.560000000000000000e+02 8.100000000000000000e+01
1.570000000000000000e+02 8.100000000000000000e+01
1.580000000000000000e+02 8.100000000000000000e+01
1.590000000000000000e+02 8.100000000000000000e+01
2.950000000000000000e+02 8.100000000000000000e+01
2.960000000000000000e+02 8.100000000000000000e+01
2.970000000000000000e+02 8.100000000000000000e+01
2.980000000000000000e+02 8.100000000000000000e+01
2.990000000000000000e+02 8.100000000000000000e+01
3.000000000000000000e+02 8.100000000000000000e+01
4.390000000000000000e+02 8.100000000000000000e+01
4.400000000000000000e+02 8.100000000000000000e+01
4.410000000000000000e+02 8.100000000000000000e+01
4.420000000000000000e+02 8.100000000000000000e+01
4.430000000000000000e+02 8.100000000000000000e+01
4.440000000000000000e+02 8.100000000000000000e+01
5.710000000000000000e+02 8.100000000000000000e+01
5.720000000000000000e+02 8.100000000000000000e+01
5.730000000000000000e+02 8.100000000000000000e+01
5.740000000000000000e+02 8.100000000000000000e+01
5.750000000000000000e+02 8.100000000000000000e+01
5.760000000000000000e+02 8.100000000000000000e+01
5.770000000000000000e+02 8.100000000000000000e+01
6.930000000000000000e+02 8.100000000000000000e+01
6.940000000000000000e+02 8.100000000000000000e+01
6.950000000000000000e+02 8.100000000000000000e+01
6.960000000000000000e+02 8.100000000000000000e+01
6.970000000000000000e+02 8.100000000000000000e+01
6.980000000000000000e+02 8.100000000000000000e+01
8.220000000000000000e+02 8.100000000000000000e+01
8.230000000000000000e+02 8.100000000000000000e+01
8.240000000000000000e+02 8.100000000000000000e+01
8.250000000000000000e+02 8.100000000000000000e+01
8.260000000000000000e+02 8.100000000000000000e+01
9.580000000000000000e+02 8.100000000000000000e+01
9.590000000000000000e+02 8.100000000000000000e+01
9.600000000000000000e+02 8.100000000000000000e+01
9.610000000000000000e+02 8.100000000000000000e+01
9.620000000000000000e+02 8.100000000000000000e+01
9.630000000000000000e+02 8.100000000000000000e+01
1.000000000000000000e+01 8.200000000000000000e+01
1.100000000000000000e+01 8.200000000000000000e+01
1.200000000000000000e+01 8.200000000000000000e+01
2.100000000000000000e+01 8.200000000000000000e+01
2.200000000000000000e+01 8.200000000000000000e+01
2.300000000000000000e+01 8.200000000000000000e+01
2.400000000000000000e+01 8.200000000000000000e+01
2.500000000000000000e+01 8.200000000000000000e+01
2.600000000000000000e+01 8.200000000000000000e+01
1.540000000000000000e+02 8.200000000000000000e+01
1.550000000000000000e+02 8.200000000000000000e+01
1.560000000000000000e+02 8.200000000000000000e+01
1.570000000000000000e+02 8.200000000000000000e+01
1.580000000000000000e+02 8.200000000000000000e+01
1.590000000000000000e+02 8.200000000000000000e+01
2.950000000000000000e+02 8.200000000000000000e+01
2.960000000000000000e+02 8.200000000000000000e+01
2.970000000000000000e+02 8.200000000000000000e+01
2.980000000000000000e+02 8.200000000000000000e+01
2.990000000000000000e+02 8.200000000000000000e+01
3.000000000000000000e+02 8.200000000000000000e+01
4.390000000000000000e+02 8.200000000000000000e+01
4.400000000000000000e+02 8.200000000000000000e+01
4.410000000000000000e+02 8.200000000000000000e+01
4.420000000000000000e+02 8.200000000000000000e+01
4.430000000000000000e+02 8.200000000000000000e+01
4.440000000000000000e+02 8.200000000000000000e+01
5.710000000000000000e+02 8.200000000000000000e+01
5.720000000000000000e+02 8.200000000000000000e+01
5.730000000000000000e+02 8.200000000000000000e+01
5.740000000000000000e+02 8.200000000000000000e+01
5.750000000000000000e+02 8.200000000000000000e+01
5.760000000000000000e+02 8.200000000000000000e+01
5.770000000000000000e+02 8.200000000000000000e+01
6.930000000000000000e+02 8.200000000000000000e+01
6.940000000000000000e+02 8.200000000000000000e+01
6.950000000000000000e+02 8.200000000000000000e+01
6.960000000000000000e+02 8.200000000000000000e+01
6.970000000000000000e+02 8.200000000000000000e+01
6.980000000000000000e+02 8.200000000000000000e+01
8.210000000000000000e+02 8.200000000000000000e+01
8.220000000000000000e+02 8.200000000000000000e+01
8.230000000000000000e+02 8.200000000000000000e+01
8.240000000000000000e+02 8.200000000000000000e+01
8.250000000000000000e+02 8.200000000000000000e+01
8.260000000000000000e+02 8.200000000000000000e+01
9.580000000000000000e+02 8.200000000000000000e+01
9.590000000000000000e+02 8.200000000000000000e+01
9.600000000000000000e+02 8.200000000000000000e+01
9.610000000000000000e+02 8.200000000000000000e+01
9.620000000000000000e+02 8.200000000000000000e+01
9.630000000000000000e+02 8.200000000000000000e+01
1.000000000000000000e+01 8.300000000000000000e+01
1.100000000000000000e+01 8.300000000000000000e+01
1.200000000000000000e+01 8.300000000000000000e+01
2.100000000000000000e+01 8.300000000000000000e+01
2.200000000000000000e+01 8.300000000000000000e+01
2.300000000000000000e+01 8.300000000000000000e+01
2.400000000000000000e+01 8.300000000000000000e+01
2.500000000000000000e+01 8.300000000000000000e+01
2.600000000000000000e+01 8.300000000000000000e+01
1.540000000000000000e+02 8.300000000000000000e+01
1.550000000000000000e+02 8.300000000000000000e+01
1.560000000000000000e+02 8.300000000000000000e+01
1.570000000000000000e+02 8.300000000000000000e+01
1.580000000000000000e+02 8.300000000000000000e+01
1.590000000000000000e+02 8.300000000000000000e+01
2.950000000000000000e+02 8.300000000000000000e+01
2.960000000000000000e+02 8.300000000000000000e+01
2.970000000000000000e+02 8.300000000000000000e+01
2.980000000000000000e+02 8.300000000000000000e+01
2.990000000000000000e+02 8.300000000000000000e+01
3.000000000000000000e+02 8.300000000000000000e+01
4.390000000000000000e+02 8.300000000000000000e+01
4.400000000000000000e+02 8.300000000000000000e+01
4.410000000000000000e+02 8.300000000000000000e+01
4.420000000000000000e+02 8.300000000000000000e+01
4.430000000000000000e+02 8.300000000000000000e+01
4.440000000000000000e+02 8.300000000000000000e+01
5.710000000000000000e+02 8.300000000000000000e+01
5.720000000000000000e+02 8.300000000000000000e+01
5.730000000000000000e+02 8.300000000000000000e+01
5.740000000000000000e+02 8.300000000000000000e+01
5.750000000000000000e+02 8.300000000000000000e+01
5.760000000000000000e+02 8.300000000000000000e+01
5.770000000000000000e+02 8.300000000000000000e+01
6.930000000000000000e+02 8.300000000000000000e+01
6.940000000000000000e+02 8.300000000000000000e+01
6.950000000000000000e+02 8.300000000000000000e+01
6.960000000000000000e+02 8.300000000000000000e+01
6.970000000000000000e+02 8.300000000000000000e+01
6.980000000000000000e+02 8.300000000000000000e+01
8.210000000000000000e+02 8.300000000000000000e+01
8.220000000000000000e+02 8.300000000000000000e+01
8.230000000000000000e+02 8.300000000000000000e+01
8.240000000000000000e+02 8.300000000000000000e+01
8.250000000000000000e+02 8.300000000000000000e+01
8.260000000000000000e+02 8.300000000000000000e+01
9.580000000000000000e+02 8.300000000000000000e+01
9.590000000000000000e+02 8.300000000000000000e+01
9.600000000000000000e+02 8.300000000000000000e+01
9.610000000000000000e+02 8.300000000000000000e+01
9.620000000000000000e+02 8.300000000000000000e+01
9.630000000000000000e+02 8.300000000000000000e+01
1.000000000000000000e+01 8.400000000000000000e+01
1.100000000000000000e+01 8.400000000000000000e+01
1.200000000000000000e+01 8.400000000000000000e+01
2.100000000000000000e+01 8.400000000000000000e+01
2.200000000000000000e+01 8.400000000000000000e+01
2.300000000000000000e+01 8.400000000000000000e+01
2.400000000000000000e+01 8.400000000000000000e+01
2.500000000000000000e+01 8.400000000000000000e+01
2.600000000000000000e+01 8.400000000000000000e+01
1.540000000000000000e+02 8.400000000000000000e+01
1.550000000000000000e+02 8.400000000000000000e+01
1.560000000000000000e+02 8.400000000000000000e+01
1.570000000000000000e+02 8.400000000000000000e+01
1.580000000000000000e+02 8.400000000000000000e+01
1.590000000000000000e+02 8.400000000000000000e+01
2.950000000000000000e+02 8.400000000000000000e+01
2.960000000000000000e+02 8.400000000000000000e+01
2.970000000000000000e+02 8.400000000000000000e+01
2.980000000000000000e+02 8.400000000000000000e+01
2.990000000000000000e+02 8.400000000000000000e+01
3.000000000000000000e+02 8.400000000000000000e+01
4.390000000000000000e+02 8.400000000000000000e+01
4.400000000000000000e+02 8.400000000000000000e+01
4.410000000000000000e+02 8.400000000000000000e+01
4.420000000000000000e+02 8.400000000000000000e+01
4.430000000000000000e+02 8.400000000000000000e+01
4.440000000000000000e+02 8.400000000000000000e+01
5.710000000000000000e+02 8.400000000000000000e+01
5.720000000000000000e+02 8.400000000000000000e+01
5.730000000000000000e+02 8.400000000000000000e+01
5.740000000000000000e+02 8.400000000000000000e+01
5.750000000000000000e+02 8.400000000000000000e+01
5.760000000000000000e+02 8.400000000000000000e+01
5.770000000000000000e+02 8.400000000000000000e+01
6.930000000000000000e+02 8.400000000000000000e+01
6.940000000000000000e+02 8.400000000000000000e+01
6.950000000000000000e+02 8.400000000000000000e+01
6.960000000000000000e+02 8.400000000000000000e+01
6.970000000000000000e+02 8.400000000000000000e+01
6.980000000000000000e+02 8.400000000000000000e+01
8.210000000000000000e+02 8.400000000000000000e+01
8.220000000000000000e+02 8.400000000000000000e+01
8.230000000000000000e+02 8.400000000000000000e+01
8.240000000000000000e+02 8.400000000000000000e+01
8.250000000000000000e+02 8.400000000000000000e+01
8.260000000000000000e+02 8.400000000000000000e+01
9.580000000000000000e+02 8.400000000000000000e+01
9.590000000000000000e+02 8.400000000000000000e+01
9.600000000000000000e+02 8.400000000000000000e+01
9.610000000000000000e+02 8.400000000000000000e+01
9.620000000000000000e+02 8.400000000000000000e+01
9.630000000000000000e+02 8.400000000000000000e+01
1.000000000000000000e+01 8.500000000000000000e+01
1.100000000000000000e+01 8.500000000000000000e+01
1.200000000000000000e+01 8.500000000000000000e+01
2.100000000000000000e+01 8.500000000000000000e+01
2.200000000000000000e+01 8.500000000000000000e+01
2.300000000000000000e+01 8.500000000000000000e+01
2.400000000000000000e+01 8.500000000000000000e+01
2.500000000000000000e+01 8.500000000000000000e+01
2.600000000000000000e+01 8.500000000000000000e+01
1.540000000000000000e+02 8.500000000000000000e+01
1.550000000000000000e+02 8.500000000000000000e+01
1.560000000000000000e+02 8.500000000000000000e+01
1.570000000000000000e+02 8.500000000000000000e+01
1.580000000000000000e+02 8.500000000000000000e+01
1.590000000000000000e+02 8.500000000000000000e+01
2.950000000000000000e+02 8.500000000000000000e+01
2.960000000000000000e+02 8.500000000000000000e+01
2.970000000000000000e+02 8.500000000000000000e+01
2.980000000000000000e+02 8.500000000000000000e+01
2.990000000000000000e+02 8.500000000000000000e+01
3.000000000000000000e+02 8.500000000000000000e+01
4.390000000000000000e+02 8.500000000000000000e+01
4.400000000000000000e+02 8.500000000000000000e+01
4.410000000000000000e+02 8.500000000000000000e+01
4.420000000000000000e+02 8.500000000000000000e+01
4.430000000000000000e+02 8.500000000000000000e+01
4.440000000000000000e+02 8.500000000000000000e+01
5.710000000000000000e+02 8.500000000000000000e+01
5.720000000000000000e+02 8.500000000000000000e+01
5.730000000000000000e+02 8.500000000000000000e+01
5.740000000000000000e+02 8.500000000000000000e+01
5.750000000000000000e+02 8.500000000000000000e+01
5.760000000000000000e+02 8.500000000000000000e+01
5.770000000000000000e+02 8.500000000000000000e+01
6.930000000000000000e+02 8.500000000000000000e+01
6.940000000000000000e+02 8.500000000000000000e+01
6.950000000000000000e+02 8.500000000000000000e+01
6.960000000000000000e+02 8.500000000000000000e+01
6.970000000000000000e+02 8.500000000000000000e+01
6.980000000000000000e+02 8.500000000000000000e+01
8.210000000000000000e+02 8.500000000000000000e+01
8.220000000000000000e+02 8.500000000000000000e+01
8.230000000000000000e+02 8.500000000000000000e+01
8.240000000000000000e+02 8.500000000000000000e+01
8.250000000000000000e+02 8.500000000000000000e+01
8.260000000000000000e+02 8.500000000000000000e+01
9.580000000000000000e+02 8.500000000000000000e+01
9.590000000000000000e+02 8.500000000000000000e+01
9.600000000000000000e+02 8.500000000000000000e+01
9.610000000000000000e+02 8.500000000000000000e+01
9.620000000000000000e+02 8.500000000000000000e+01
9.630000000000000000e+02 8.500000000000000000e+01
1.000000000000000000e+01 8.600000000000000000e+01
1.100000000000000000e+01 8.600000000000000000e+01
1.200000000000000000e+01 8.600000000000000000e+01
2.100000000000000000e+01 8.600000000000000000e+01
2.200000000000000000e+01 8.600000000000000000e+01
2.300000000000000000e+01 8.600000000000000000e+01
2.400000000000000000e+01 8.600000000000000000e+01
2.500000000000000000e+01 8.600000000000000000e+01
2.600000000000000000e+01 8.600000000000000000e+01
1.540000000000000000e+02 8.600000000000000000e+01
1.550000000000000000e+02 8.600000000000000000e+01
1.560000000000000000e+02 8.600000000000000000e+01
1.570000000000000000e+02 8.600000000000000000e+01
1.580000000000000000e+02 8.600000000000000000e+01
1.590000000000000000e+02 8.600000000000000000e+01
2.950000000000000000e+02 8.600000000000000000e+01
2.960000000000000000e+02 8.600000000000000000e+01
2.970000000000000000e+02 8.600000000000000000e+01
2.980000000000000000e+02 8.600000000000000000e+01
2.990000000000000000e+02 8.600000000000000000e+01
3.000000000000000000e+02 8.600000000000000000e+01
4.390000000000000000e+02 8.600000000000000000e+01
4.400000000000000000e+02 8.600000000000000000e+01
4.410000000000000000e+02 8.600000000000000000e+01
4.420000000000000000e+02 8.600000000000000000e+01
4.430000000000000000e+02 8.600000000000000000e+01
4.440000000000000000e+02 8.600000000000000000e+01
4.450000000000000000e+02 8.600000000000000000e+01
5.710000000000000000e+02 8.600000000000000000e+01
5.720000000000000000e+02 8.600000000000000000e+01
5.730000000000000000e+02 8.600000000000000000e+01
5.740000000000000000e+02 8.600000000000000000e+01
5.750000000000000000e+02 8.600000000000000000e+01
5.760000000000000000e+02 8.600000000000000000e+01
5.770000000000000000e+02 8.600000000000000000e+01
6.930000000000000000e+02 8.600000000000000000e+01
6.940000000000000000e+02 8.600000000000000000e+01
6.950000000000000000e+02 8.600000000000000000e+01
6.960000000000000000e+02 8.600000000000000000e+01
6.970000000000000000e+02 8.600000000000000000e+01
6.980000000000000000e+02 8.600000000000000000e+01
8.210000000000000000e+02 8.600000000000000000e+01
8.220000000000000000e+02 8.600000000000000000e+01
8.230000000000000000e+02 8.600000000000000000e+01
8.240000000000000000e+02 8.600000000000000000e+01
8.250000000000000000e+02 8.600000000000000000e+01
8.260000000000000000e+02 8.600000000000000000e+01
9.580000000000000000e+02 8.600000000000000000e+01
9.590000000000000000e+02 8.600000000000000000e+01
9.600000000000000000e+02 8.600000000000000000e+01
9.610000000000000000e+02 8.600000000000000000e+01
9.620000000000000000e+02 8.600000000000000000e+01
9.630000000000000000e+02 8.600000000000000000e+01
1.000000000000000000e+01 8.700000000000000000e+01
1.100000000000000000e+01 8.700000000000000000e+01
1.200000000000000000e+01 8.700000000000000000e+01
2.100000000000000000e+01 8.700000000000000000e+01
2.200000000000000000e+01 8.700000000000000000e+01
2.300000000000000000e+01 8.700000000000000000e+01
2.400000000000000000e+01 8.700000000000000000e+01
2.500000000000000000e+01 8.700000000000000000e+01
2.600000000000000000e+01 8.700000000000000000e+01
1.540000000000000000e+02 8.700000000000000000e+01
1.550000000000000000e+02 8.700000000000000000e+01
1.560000000000000000e+02 8.700000000000000000e+01
1.570000000000000000e+02 8.700000000000000000e+01
1.580000000000000000e+02 8.700000000000000000e+01
1.590000000000000000e+02 8.700000000000000000e+01
2.950000000000000000e+02 8.700000000000000000e+01
2.960000000000000000e+02 8.700000000000000000e+01
2.970000000000000000e+02 8.700000000000000000e+01
2.980000000000000000e+02 8.700000000000000000e+01
2.990000000000000000e+02 8.700000000000000000e+01
3.000000000000000000e+02 8.700000000000000000e+01
4.390000000000000000e+02 8.700000000000000000e+01
4.400000000000000000e+02 8.700000000000000000e+01
4.410000000000000000e+02 8.700000000000000000e+01
4.420000000000000000e+02 8.700000000000000000e+01
4.430000000000000000e+02 8.700000000000000000e+01
4.440000000000000000e+02 8.700000000000000000e+01
4.450000000000000000e+02 8.700000000000000000e+01
5.710000000000000000e+02 8.700000000000000000e+01
5.720000000000000000e+02 8.700000000000000000e+01
5.730000000000000000e+02 8.700000000000000000e+01
5.740000000000000000e+02 8.700000000000000000e+01
5.750000000000000000e+02 8.700000000000000000e+01
5.760000000000000000e+02 8.700000000000000000e+01
5.770000000000000000e+02 8.700000000000000000e+01
6.930000000000000000e+02 8.700000000000000000e+01
6.940000000000000000e+02 8.700000000000000000e+01
6.950000000000000000e+02 8.700000000000000000e+01
6.960000000000000000e+02 8.700000000000000000e+01
6.970000000000000000e+02 8.700000000000000000e+01
6.980000000000000000e+02 8.700000000000000000e+01
8.210000000000000000e+02 8.700000000000000000e+01
8.220000000000000000e+02 8.700000000000000000e+01
8.230000000000000000e+02 8.700000000000000000e+01
8.240000000000000000e+02 8.700000000000000000e+01
8.250000000000000000e+02 8.700000000000000000e+01
8.260000000000000000e+02 8.700000000000000000e+01
9.580000000000000000e+02 8.700000000000000000e+01
9.590000000000000000e+02 8.700000000000000000e+01
9.600000000000000000e+02 8.700000000000000000e+01
9.610000000000000000e+02 8.700000000000000000e+01
9.620000000000000000e+02 8.700000000000000000e+01
9.630000000000000000e+02 8.700000000000000000e+01
1.000000000000000000e+01 8.800000000000000000e+01
1.100000000000000000e+01 8.800000000000000000e+01
1.200000000000000000e+01 8.800000000000000000e+01
2.100000000000000000e+01 8.800000000000000000e+01
2.200000000000000000e+01 8.800000000000000000e+01
2.300000000000000000e+01 8.800000000000000000e+01
2.400000000000000000e+01 8.800000000000000000e+01
2.500000000000000000e+01 8.800000000000000000e+01
2.600000000000000000e+01 8.800000000000000000e+01
1.540000000000000000e+02 8.800000000000000000e+01
1.550000000000000000e+02 8.800000000000000000e+01
1.560000000000000000e+02 8.800000000000000000e+01
1.570000000000000000e+02 8.800000000000000000e+01
1.580000000000000000e+02 8.800000000000000000e+01
1.590000000000000000e+02 8.800000000000000000e+01
2.950000000000000000e+02 8.800000000000000000e+01
2.960000000000000000e+02 8.800000000000000000e+01
2.970000000000000000e+02 8.800000000000000000e+01
2.980000000000000000e+02 8.800000000000000000e+01
2.990000000000000000e+02 8.800000000000000000e+01
3.000000000000000000e+02 8.800000000000000000e+01
4.390000000000000000e+02 8.800000000000000000e+01
4.400000000000000000e+02 8.800000000000000000e+01
4.410000000000000000e+02 8.800000000000000000e+01
4.420000000000000000e+02 8.800000000000000000e+01
4.430000000000000000e+02 8.800000000000000000e+01
4.440000000000000000e+02 8.800000000000000000e+01
4.450000000000000000e+02 8.800000000000000000e+01
5.710000000000000000e+02 8.800000000000000000e+01
5.720000000000000000e+02 8.800000000000000000e+01
5.730000000000000000e+02 8.800000000000000000e+01
5.740000000000000000e+02 8.800000000000000000e+01
5.750000000000000000e+02 8.800000000000000000e+01
5.760000000000000000e+02 8.800000000000000000e+01
5.770000000000000000e+02 8.800000000000000000e+01
6.930000000000000000e+02 8.800000000000000000e+01
6.940000000000000000e+02 8.800000000000000000e+01
6.950000000000000000e+02 8.800000000000000000e+01
6.960000000000000000e+02 8.800000000000000000e+01
6.970000000000000000e+02 8.800000000000000000e+01
6.980000000000000000e+02 8.800000000000000000e+01
8.210000000000000000e+02 8.800000000000000000e+01
8.220000000000000000e+02 8.800000000000000000e+01
8.230000000000000000e+02 8.800000000000000000e+01
8.240000000000000000e+02 8.800000000000000000e+01
8.250000000000000000e+02 8.800000000000000000e+01
8.260000000000000000e+02 8.800000000000000000e+01
9.580000000000000000e+02 8.800000000000000000e+01
9.590000000000000000e+02 8.800000000000000000e+01
9.600000000000000000e+02 8.800000000000000000e+01
9.610000000000000000e+02 8.800000000000000000e+01
9.620000000000000000e+02 8.800000000000000000e+01
9.630000000000000000e+02 8.800000000000000000e+01
1.000000000000000000e+01 8.900000000000000000e+01
1.100000000000000000e+01 8.900000000000000000e+01
1.200000000000000000e+01 8.900000000000000000e+01
2.100000000000000000e+01 8.900000000000000000e+01
2.200000000000000000e+01 8.900000000000000000e+01
2.300000000000000000e+01 8.900000000000000000e+01
2.400000000000000000e+01 8.900000000000000000e+01
2.500000000000000000e+01 8.900000000000000000e+01
2.600000000000000000e+01 8.900000000000000000e+01
1.540000000000000000e+02 8.900000000000000000e+01
1.550000000000000000e+02 8.900000000000000000e+01
1.560000000000000000e+02 8.900000000000000000e+01
1.570000000000000000e+02 8.900000000000000000e+01
1.580000000000000000e+02 8.900000000000000000e+01
1.590000000000000000e+02 8.900000000000000000e+01
2.950000000000000000e+02 8.900000000000000000e+01
2.960000000000000000e+02 8.900000000000000000e+01
2.970000000000000000e+02 8.900000000000000000e+01
2.980000000000000000e+02 8.900000000000000000e+01
2.990000000000000000e+02 8.900000000000000000e+01
3.000000000000000000e+02 8.900000000000000000e+01
4.390000000000000000e+02 8.900000000000000000e+01
4.400000000000000000e+02 8.900000000000000000e+01
4.410000000000000000e+02 8.900000000000000000e+01
4.420000000000000000e+02 8.900000000000000000e+01
4.430000000000000000e+02 8.900000000000000000e+01
4.440000000000000000e+02 8.900000000000000000e+01
4.450000000000000000e+02 8.900000000000000000e+01
5.710000000000000000e+02 8.900000000000000000e+01
5.720000000000000000e+02 8.900000000000000000e+01
5.730000000000000000e+02 8.900000000000000000e+01
5.740000000000000000e+02 8.900000000000000000e+01
5.750000000000000000e+02 8.900000000000000000e+01
5.760000000000000000e+02 8.900000000000000000e+01
5.770000000000000000e+02 8.900000000000000000e+01
6.930000000000000000e+02 8.900000000000000000e+01
6.940000000000000000e+02 8.900000000000000000e+01
6.950000000000000000e+02 8.900000000000000000e+01
6.960000000000000000e+02 8.900000000000000000e+01
6.970000000000000000e+02 8.900000000000000000e+01
6.980000000000000000e+02 8.900000000000000000e+01
8.210000000000000000e+02 8.900000000000000000e+01
8.220000000000000000e+02 8.900000000000000000e+01
8.230000000000000000e+02 8.900000000000000000e+01
8.240000000000000000e+02 8.900000000000000000e+01
8.250000000000000000e+02 8.900000000000000000e+01
8.260000000000000000e+02 8.900000000000000000e+01
9.580000000000000000e+02 8.900000000000000000e+01
9.590000000000000000e+02 8.900000000000000000e+01
9.600000000000000000e+02 8.900000000000000000e+01
9.610000000000000000e+02 8.900000000000000000e+01
9.620000000000000000e+02 8.900000000000000000e+01
9.630000000000000000e+02 8.900000000000000000e+01
1.000000000000000000e+01 9.000000000000000000e+01
1.100000000000000000e+01 9.000000000000000000e+01
1.200000000000000000e+01 9.000000000000000000e+01
2.100000000000000000e+01 9.000000000000000000e+01
2.200000000000000000e+01 9.000000000000000000e+01
2.300000000000000000e+01 9.000000000000000000e+01
2.400000000000000000e+01 9.000000000000000000e+01
2.500000000000000000e+01 9.000000000000000000e+01
2.600000000000000000e+01 9.000000000000000000e+01
1.540000000000000000e+02 9.000000000000000000e+01
1.550000000000000000e+02 9.000000000000000000e+01
1.560000000000000000e+02 9.000000000000000000e+01
1.570000000000000000e+02 9.000000000000000000e+01
1.580000000000000000e+02 9.000000000000000000e+01
1.590000000000000000e+02 9.000000000000000000e+01
2.950000000000000000e+02 9.000000000000000000e+01
2.960000000000000000e+02 9.000000000000000000e+01
2.970000000000000000e+02 9.000000000000000000e+01
2.980000000000000000e+02 9.000000000000000000e+01
2.990000000000000000e+02 9.000000000000000000e+01
3.000000000000000000e+02 9.000000000000000000e+01
4.390000000000000000e+02 9.000000000000000000e+01
4.400000000000000000e+02 9.000000000000000000e+01
4.410000000000000000e+02 9.000000000000000000e+01
4.420000000000000000e+02 9.000000000000000000e+01
4.430000000000000000e+02 9.000000000000000000e+01
4.440000000000000000e+02 9.000000000000000000e+01
4.450000000000000000e+02 9.000000000000000000e+01
5.710000000000000000e+02 9.000000000000000000e+01
5.720000000000000000e+02 9.000000000000000000e+01
5.730000000000000000e+02 9.000000000000000000e+01
5.740000000000000000e+02 9.000000000000000000e+01
5.750000000000000000e+02 9.000000000000000000e+01
5.760000000000000000e+02 9.000000000000000000e+01
5.770000000000000000e+02 9.000000000000000000e+01
6.930000000000000000e+02 9.000000000000000000e+01
6.940000000000000000e+02 9.000000000000000000e+01
6.950000000000000000e+02 9.000000000000000000e+01
6.960000000000000000e+02 9.000000000000000000e+01
6.970000000000000000e+02 9.000000000000000000e+01
6.980000000000000000e+02 9.000000000000000000e+01
8.210000000000000000e+02 9.000000000000000000e+01
8.220000000000000000e+02 9.000000000000000000e+01
8.230000000000000000e+02 9.000000000000000000e+01
8.240000000000000000e+02 9.000000000000000000e+01
8.250000000000000000e+02 9.000000000000000000e+01
8.260000000000000000e+02 9.000000000000000000e+01
9.580000000000000000e+02 9.000000000000000000e+01
9.590000000000000000e+02 9.000000000000000000e+01
9.600000000000000000e+02 9.000000000000000000e+01
9.610000000000000000e+02 9.000000000000000000e+01
9.620000000000000000e+02 9.000000000000000000e+01
9.630000000000000000e+02 9.000000000000000000e+01
1.000000000000000000e+01 9.100000000000000000e+01
1.100000000000000000e+01 9.100000000000000000e+01
1.200000000000000000e+01 9.100000000000000000e+01
2.100000000000000000e+01 9.100000000000000000e+01
2.200000000000000000e+01 9.100000000000000000e+01
2.300000000000000000e+01 9.100000000000000000e+01
2.400000000000000000e+01 9.100000000000000000e+01
2.500000000000000000e+01 9.100000000000000000e+01
2.600000000000000000e+01 9.100000000000000000e+01
1.540000000000000000e+02 9.100000000000000000e+01
1.550000000000000000e+02 9.100000000000000000e+01
1.560000000000000000e+02 9.100000000000000000e+01
1.570000000000000000e+02 9.100000000000000000e+01
1.580000000000000000e+02 9.100000000000000000e+01
1.590000000000000000e+02 9.100000000000000000e+01
2.950000000000000000e+02 9.100000000000000000e+01
2.960000000000000000e+02 9.100000000000000000e+01
2.970000000000000000e+02 9.100000000000000000e+01
2.980000000000000000e+02 9.100000000000000000e+01
2.990000000000000000e+02 9.100000000000000000e+01
3.000000000000000000e+02 9.100000000000000000e+01
4.390000000000000000e+02 9.100000000000000000e+01
4.400000000000000000e+02 9.100000000000000000e+01
4.410000000000000000e+02 9.100000000000000000e+01
4.420000000000000000e+02 9.100000000000000000e+01
4.430000000000000000e+02 9.100000000000000000e+01
4.440000000000000000e+02 9.100000000000000000e+01
4.450000000000000000e+02 9.100000000000000000e+01
5.710000000000000000e+02 9.100000000000000000e+01
5.720000000000000000e+02 9.100000000000000000e+01
5.730000000000000000e+02 9.100000000000000000e+01
5.740000000000000000e+02 9.100000000000000000e+01
5.750000000000000000e+02 9.100000000000000000e+01
5.760000000000000000e+02 9.100000000000000000e+01
5.770000000000000000e+02 9.100000000000000000e+01
6.930000000000000000e+02 9.100000000000000000e+01
6.940000000000000000e+02 9.100000000000000000e+01
6.950000000000000000e+02 9.100000000000000000e+01
6.960000000000000000e+02 9.100000000000000000e+01
6.970000000000000000e+02 9.100000000000000000e+01
6.980000000000000000e+02 9.100000000000000000e+01
8.210000000000000000e+02 9.100000000000000000e+01
8.220000000000000000e+02 9.100000000000000000e+01
8.230000000000000000e+02 9.100000000000000000e+01
8.240000000000000000e+02 9.100000000000000000e+01
8.250000000000000000e+02 9.100000000000000000e+01
8.260000000000000000e+02 9.100000000000000000e+01
9.580000000000000000e+02 9.100000000000000000e+01
9.590000000000000000e+02 9.100000000000000000e+01
9.600000000000000000e+02 9.100000000000000000e+01
9.610000000000000000e+02 9.100000000000000000e+01
9.620000000000000000e+02 9.100000000000000000e+01
9.630000000000000000e+02 9.100000000000000000e+01
9.640000000000000000e+02 9.100000000000000000e+01
1.000000000000000000e+01 9.200000000000000000e+01
1.100000000000000000e+01 9.200000000000000000e+01
1.200000000000000000e+01 9.200000000000000000e+01
2.100000000000000000e+01 9.200000000000000000e+01
2.200000000000000000e+01 9.200000000000000000e+01
2.300000000000000000e+01 9.200000000000000000e+01
2.400000000000000000e+01 9.200000000000000000e+01
2.500000000000000000e+01 9.200000000000000000e+01
2.600000000000000000e+01 9.200000000000000000e+01
1.540000000000000000e+02 9.200000000000000000e+01
1.550000000000000000e+02 9.200000000000000000e+01
1.560000000000000000e+02 9.200000000000000000e+01
1.570000000000000000e+02 9.200000000000000000e+01
1.580000000000000000e+02 9.200000000000000000e+01
1.590000000000000000e+02 9.200000000000000000e+01
2.950000000000000000e+02 9.200000000000000000e+01
2.960000000000000000e+02 9.200000000000000000e+01
2.970000000000000000e+02 9.200000000000000000e+01
2.980000000000000000e+02 9.200000000000000000e+01
2.990000000000000000e+02 9.200000000000000000e+01
3.000000000000000000e+02 9.200000000000000000e+01
4.390000000000000000e+02 9.200000000000000000e+01
4.400000000000000000e+02 9.200000000000000000e+01
4.410000000000000000e+02 9.200000000000000000e+01
4.420000000000000000e+02 9.200000000000000000e+01
4.430000000000000000e+02 9.200000000000000000e+01
4.440000000000000000e+02 9.200000000000000000e+01
4.450000000000000000e+02 9.200000000000000000e+01
5.710000000000000000e+02 9.200000000000000000e+01
5.720000000000000000e+02 9.200000000000000000e+01
5.730000000000000000e+02 9.200000000000000000e+01
5.740000000000000000e+02 9.200000000000000000e+01
5.750000000000000000e+02 9.200000000000000000e+01
5.760000000000000000e+02 9.200000000000000000e+01
5.770000000000000000e+02 9.200000000000000000e+01
6.930000000000000000e+02 9.200000000000000000e+01
6.940000000000000000e+02 9.200000000000000000e+01
6.950000000000000000e+02 9.200000000000000000e+01
6.960000000000000000e+02 9.200000000000000000e+01
6.970000000000000000e+02 9.200000000000000000e+01
6.980000000000000000e+02 9.200000000000000000e+01
8.210000000000000000e+02 9.200000000000000000e+01
8.220000000000000000e+02 9.200000000000000000e+01
8.230000000000000000e+02 9.200000000000000000e+01
8.240000000000000000e+02 9.200000000000000000e+01
8.250000000000000000e+02 9.200000000000000000e+01
8.260000000000000000e+02 9.200000000000000000e+01
9.580000000000000000e+02 9.200000000000000000e+01
9.590000000000000000e+02 9.200000000000000000e+01
9.600000000000000000e+02 9.200000000000000000e+01
9.610000000000000000e+02 9.200000000000000000e+01
9.620000000000000000e+02 9.200000000000000000e+01
9.630000000000000000e+02 9.200000000000000000e+01
9.640000000000000000e+02 9.200000000000000000e+01
1.000000000000000000e+01 9.300000000000000000e+01
1.100000000000000000e+01 9.300000000000000000e+01
1.200000000000000000e+01 9.300000000000000000e+01
2.100000000000000000e+01 9.300000000000000000e+01
2.200000000000000000e+01 9.300000000000000000e+01
2.300000000000000000e+01 9.300000000000000000e+01
2.400000000000000000e+01 9.300000000000000000e+01
2.500000000000000000e+01 9.300000000000000000e+01
2.600000000000000000e+01 9.300000000000000000e+01
1.540000000000000000e+02 9.300000000000000000e+01
1.550000000000000000e+02 9.300000000000000000e+01
1.560000000000000000e+02 9.300000000000000000e+01
1.570000000000000000e+02 9.300000000000000000e+01
1.580000000000000000e+02 9.300000000000000000e+01
1.590000000000000000e+02 9.300000000000000000e+01
2.950000000000000000e+02 9.300000000000000000e+01
2.960000000000000000e+02 9.300000000000000000e+01
2.970000000000000000e+02 9.300000000000000000e+01
2.980000000000000000e+02 9.300000000000000000e+01
2.990000000000000000e+02 9.300000000000000000e+01
3.000000000000000000e+02 9.300000000000000000e+01
4.390000000000000000e+02 9.300000000000000000e+01
4.400000000000000000e+02 9.300000000000000000e+01
4.410000000000000000e+02 9.300000000000000000e+01
4.420000000000000000e+02 9.300000000000000000e+01
4.430000000000000000e+02 9.300000000000000000e+01
4.440000000000000000e+02 9.300000000000000000e+01
4.450000000000000000e+02 9.300000000000000000e+01
5.710000000000000000e+02 9.300000000000000000e+01
5.720000000000000000e+02 9.300000000000000000e+01
5.730000000000000000e+02 9.300000000000000000e+01
5.750000000000000000e+02 9.300000000000000000e+01
5.760000000000000000e+02 9.300000000000000000e+01
5.770000000000000000e+02 9.300000000000000000e+01
6.930000000000000000e+02 9.300000000000000000e+01
6.940000000000000000e+02 9.300000000000000000e+01
6.950000000000000000e+02 9.300000000000000000e+01
6.960000000000000000e+02 9.300000000000000000e+01
6.970000000000000000e+02 9.300000000000000000e+01
6.980000000000000000e+02 9.300000000000000000e+01
8.210000000000000000e+02 9.300000000000000000e+01
8.220000000000000000e+02 9.300000000000000000e+01
8.230000000000000000e+02 9.300000000000000000e+01
8.240000000000000000e+02 9.300000000000000000e+01
8.250000000000000000e+02 9.300000000000000000e+01
8.260000000000000000e+02 9.300000000000000000e+01
9.580000000000000000e+02 9.300000000000000000e+01
9.590000000000000000e+02 9.300000000000000000e+01
9.600000000000000000e+02 9.300000000000000000e+01
9.610000000000000000e+02 9.300000000000000000e+01
9.620000000000000000e+02 9.300000000000000000e+01
9.630000000000000000e+02 9.300000000000000000e+01
9.640000000000000000e+02 9.300000000000000000e+01
1.000000000000000000e+01 9.400000000000000000e+01
1.100000000000000000e+01 9.400000000000000000e+01
1.200000000000000000e+01 9.400000000000000000e+01
2.100000000000000000e+01 9.400000000000000000e+01
2.200000000000000000e+01 9.400000000000000000e+01
2.300000000000000000e+01 9.400000000000000000e+01
2.400000000000000000e+01 9.400000000000000000e+01
2.500000000000000000e+01 9.400000000000000000e+01
2.600000000000000000e+01 9.400000000000000000e+01
1.540000000000000000e+02 9.400000000000000000e+01
1.550000000000000000e+02 9.400000000000000000e+01
1.560000000000000000e+02 9.400000000000000000e+01
1.570000000000000000e+02 9.400000000000000000e+01
1.580000000000000000e+02 9.400000000000000000e+01
1.590000000000000000e+02 9.400000000000000000e+01
2.950000000000000000e+02 9.400000000000000000e+01
2.960000000000000000e+02 9.400000000000000000e+01
2.970000000000000000e+02 9.400000000000000000e+01
2.980000000000000000e+02 9.400000000000000000e+01
2.990000000000000000e+02 9.400000000000000000e+01
3.000000000000000000e+02 9.400000000000000000e+01
4.390000000000000000e+02 9.400000000000000000e+01
4.400000000000000000e+02 9.400000000000000000e+01
4.410000000000000000e+02 9.400000000000000000e+01
4.420000000000000000e+02 9.400000000000000000e+01
4.430000000000000000e+02 9.400000000000000000e+01
4.440000000000000000e+02 9.400000000000000000e+01
4.450000000000000000e+02 9.400000000000000000e+01
5.710000000000000000e+02 9.400000000000000000e+01
5.720000000000000000e+02 9.400000000000000000e+01
5.730000000000000000e+02 9.400000000000000000e+01
5.750000000000000000e+02 9.400000000000000000e+01
5.760000000000000000e+02 9.400000000000000000e+01
5.770000000000000000e+02 9.400000000000000000e+01
6.930000000000000000e+02 9.400000000000000000e+01
6.940000000000000000e+02 9.400000000000000000e+01
6.950000000000000000e+02 9.400000000000000000e+01
6.960000000000000000e+02 9.400000000000000000e+01
6.970000000000000000e+02 9.400000000000000000e+01
6.980000000000000000e+02 9.400000000000000000e+01
8.210000000000000000e+02 9.400000000000000000e+01
8.220000000000000000e+02 9.400000000000000000e+01
8.230000000000000000e+02 9.400000000000000000e+01
8.240000000000000000e+02 9.400000000000000000e+01
8.250000000000000000e+02 9.400000000000000000e+01
8.260000000000000000e+02 9.400000000000000000e+01
8.270000000000000000e+02 9.400000000000000000e+01
9.580000000000000000e+02 9.400000000000000000e+01
9.590000000000000000e+02 9.400000000000000000e+01
9.600000000000000000e+02 9.400000000000000000e+01
9.610000000000000000e+02 9.400000000000000000e+01
9.620000000000000000e+02 9.400000000000000000e+01
9.630000000000000000e+02 9.400000000000000000e+01
9.640000000000000000e+02 9.400000000000000000e+01
1.000000000000000000e+01 9.500000000000000000e+01
1.100000000000000000e+01 9.500000000000000000e+01
1.200000000000000000e+01 9.500000000000000000e+01
2.100000000000000000e+01 9.500000000000000000e+01
2.200000000000000000e+01 9.500000000000000000e+01
2.300000000000000000e+01 9.500000000000000000e+01
2.400000000000000000e+01 9.500000000000000000e+01
2.500000000000000000e+01 9.500000000000000000e+01
2.600000000000000000e+01 9.500000000000000000e+01
1.540000000000000000e+02 9.500000000000000000e+01
1.550000000000000000e+02 9.500000000000000000e+01
1.560000000000000000e+02 9.500000000000000000e+01
1.570000000000000000e+02 9.500000000000000000e+01
1.580000000000000000e+02 9.500000000000000000e+01
1.590000000000000000e+02 9.500000000000000000e+01
2.950000000000000000e+02 9.500000000000000000e+01
2.960000000000000000e+02 9.500000000000000000e+01
2.970000000000000000e+02 9.500000000000000000e+01
2.980000000000000000e+02 9.500000000000000000e+01
2.990000000000000000e+02 9.500000000000000000e+01
3.000000000000000000e+02 9.500000000000000000e+01
4.390000000000000000e+02 9.500000000000000000e+01
4.400000000000000000e+02 9.500000000000000000e+01
4.410000000000000000e+02 9.500000000000000000e+01
4.420000000000000000e+02 9.500000000000000000e+01
4.430000000000000000e+02 9.500000000000000000e+01
4.440000000000000000e+02 9.500000000000000000e+01
4.450000000000000000e+02 9.500000000000000000e+01
5.710000000000000000e+02 9.500000000000000000e+01
5.720000000000000000e+02 9.500000000000000000e+01
5.730000000000000000e+02 9.500000000000000000e+01
5.750000000000000000e+02 9.500000000000000000e+01
5.760000000000000000e+02 9.500000000000000000e+01
5.770000000000000000e+02 9.500000000000000000e+01
6.930000000000000000e+02 9.500000000000000000e+01
6.940000000000000000e+02 9.500000000000000000e+01
6.950000000000000000e+02 9.500000000000000000e+01
6.960000000000000000e+02 9.500000000000000000e+01
6.970000000000000000e+02 9.500000000000000000e+01
6.980000000000000000e+02 9.500000000000000000e+01
8.210000000000000000e+02 9.500000000000000000e+01
8.220000000000000000e+02 9.500000000000000000e+01
8.230000000000000000e+02 9.500000000000000000e+01
8.240000000000000000e+02 9.500000000000000000e+01
8.250000000000000000e+02 9.500000000000000000e+01
8.260000000000000000e+02 9.500000000000000000e+01
8.270000000000000000e+02 9.500000000000000000e+01
9.580000000000000000e+02 9.500000000000000000e+01
9.590000000000000000e+02 9.500000000000000000e+01
9.600000000000000000e+02 9.500000000000000000e+01
9.610000000000000000e+02 9.500000000000000000e+01
9.620000000000000000e+02 9.500000000000000000e+01
9.630000000000000000e+02 9.500000000000000000e+01
9.640000000000000000e+02 9.500000000000000000e+01
1.000000000000000000e+01 9.600000000000000000e+01
1.100000000000000000e+01 9.600000000000000000e+01
1.200000000000000000e+01 9.600000000000000000e+01
2.000000000000000000e+01 9.600000000000000000e+01
2.100000000000000000e+01 9.600000000000000000e+01
2.200000000000000000e+01 9.600000000000000000e+01
2.300000000000000000e+01 9.600000000000000000e+01
2.400000000000000000e+01 9.600000000000000000e+01
2.500000000000000000e+01 9.600000000000000000e+01
2.600000000000000000e+01 9.600000000000000000e+01
1.530000000000000000e+02 9.600000000000000000e+01
1.540000000000000000e+02 9.600000000000000000e+01
1.550000000000000000e+02 9.600000000000000000e+01
1.560000000000000000e+02 9.600000000000000000e+01
1.570000000000000000e+02 9.600000000000000000e+01
1.580000000000000000e+02 9.600000000000000000e+01
1.590000000000000000e+02 9.600000000000000000e+01
2.950000000000000000e+02 9.600000000000000000e+01
2.960000000000000000e+02 9.600000000000000000e+01
2.970000000000000000e+02 9.600000000000000000e+01
2.980000000000000000e+02 9.600000000000000000e+01
2.990000000000000000e+02 9.600000000000000000e+01
3.000000000000000000e+02 9.600000000000000000e+01
4.390000000000000000e+02 9.600000000000000000e+01
4.400000000000000000e+02 9.600000000000000000e+01
4.410000000000000000e+02 9.600000000000000000e+01
4.430000000000000000e+02 9.600000000000000000e+01
4.440000000000000000e+02 9.600000000000000000e+01
4.450000000000000000e+02 9.600000000000000000e+01
5.710000000000000000e+02 9.600000000000000000e+01
5.720000000000000000e+02 9.600000000000000000e+01
5.730000000000000000e+02 9.600000000000000000e+01
5.750000000000000000e+02 9.600000000000000000e+01
5.760000000000000000e+02 9.600000000000000000e+01
5.770000000000000000e+02 9.600000000000000000e+01
6.930000000000000000e+02 9.600000000000000000e+01
6.940000000000000000e+02 9.600000000000000000e+01
6.950000000000000000e+02 9.600000000000000000e+01
6.960000000000000000e+02 9.600000000000000000e+01
6.970000000000000000e+02 9.600000000000000000e+01
6.980000000000000000e+02 9.600000000000000000e+01
8.210000000000000000e+02 9.600000000000000000e+01
8.220000000000000000e+02 9.600000000000000000e+01
8.230000000000000000e+02 9.600000000000000000e+01
8.240000000000000000e+02 9.600000000000000000e+01
8.250000000000000000e+02 9.600000000000000000e+01
8.260000000000000000e+02 9.600000000000000000e+01
8.270000000000000000e+02 9.600000000000000000e+01
9.580000000000000000e+02 9.600000000000000000e+01
9.590000000000000000e+02 9.600000000000000000e+01
9.600000000000000000e+02 9.600000000000000000e+01
9.610000000000000000e+02 9.600000000000000000e+01
9.620000000000000000e+02 9.600000000000000000e+01
9.630000000000000000e+02 9.600000000000000000e+01
9.640000000000000000e+02 9.600000000000000000e+01
1.000000000000000000e+01 9.700000000000000000e+01
1.100000000000000000e+01 9.700000000000000000e+01
1.200000000000000000e+01 9.700000000000000000e+01
2.000000000000000000e+01 9.700000000000000000e+01
2.100000000000000000e+01 9.700000000000000000e+01
2.200000000000000000e+01 9.700000000000000000e+01
2.300000000000000000e+01 9.700000000000000000e+01
2.400000000000000000e+01 9.700000000000000000e+01
2.500000000000000000e+01 9.700000000000000000e+01
2.600000000000000000e+01 9.700000000000000000e+01
1.530000000000000000e+02 9.700000000000000000e+01
1.540000000000000000e+02 9.700000000000000000e+01
1.550000000000000000e+02 9.700000000000000000e+01
1.560000000000000000e+02 9.700000000000000000e+01
1.570000000000000000e+02 9.700000000000000000e+01
1.580000000000000000e+02 9.700000000000000000e+01
1.590000000000000000e+02 9.700000000000000000e+01
2.940000000000000000e+02 9.700000000000000000e+01
2.950000000000000000e+02 9.700000000000000000e+01
2.960000000000000000e+02 9.700000000000000000e+01
2.970000000000000000e+02 9.700000000000000000e+01
2.980000000000000000e+02 9.700000000000000000e+01
2.990000000000000000e+02 9.700000000000000000e+01
3.000000000000000000e+02 9.700000000000000000e+01
4.390000000000000000e+02 9.700000000000000000e+01
4.400000000000000000e+02 9.700000000000000000e+01
4.410000000000000000e+02 9.700000000000000000e+01
4.430000000000000000e+02 9.700000000000000000e+01
4.440000000000000000e+02 9.700000000000000000e+01
4.450000000000000000e+02 9.700000000000000000e+01
5.710000000000000000e+02 9.700000000000000000e+01
5.720000000000000000e+02 9.700000000000000000e+01
5.730000000000000000e+02 9.700000000000000000e+01
5.750000000000000000e+02 9.700000000000000000e+01
5.760000000000000000e+02 9.700000000000000000e+01
5.770000000000000000e+02 9.700000000000000000e+01
6.930000000000000000e+02 9.700000000000000000e+01
6.940000000000000000e+02 9.700000000000000000e+01
6.950000000000000000e+02 9.700000000000000000e+01
6.960000000000000000e+02 9.700000000000000000e+01
6.970000000000000000e+02 9.700000000000000000e+01
6.980000000000000000e+02 9.700000000000000000e+01
8.210000000000000000e+02 9.700000000000000000e+01
8.220000000000000000e+02 9.700000000000000000e+01
8.230000000000000000e+02 9.700000000000000000e+01
8.240000000000000000e+02 9.700000000000000000e+01
8.250000000000000000e+02 9.700000000000000000e+01
8.260000000000000000e+02 9.700000000000000000e+01
8.270000000000000000e+02 9.700000000000000000e+01
9.580000000000000000e+02 9.700000000000000000e+01
9.590000000000000000e+02 9.700000000000000000e+01
9.600000000000000000e+02 9.700000000000000000e+01
9.610000000000000000e+02 9.700000000000000000e+01
9.620000000000000000e+02 9.700000000000000000e+01
9.630000000000000000e+02 9.700000000000000000e+01
9.640000000000000000e+02 9.700000000000000000e+01
1.000000000000000000e+01 9.800000000000000000e+01
1.100000000000000000e+01 9.800000000000000000e+01
1.200000000000000000e+01 9.800000000000000000e+01
2.000000000000000000e+01 9.800000000000000000e+01
2.100000000000000000e+01 9.800000000000000000e+01
2.200000000000000000e+01 9.800000000000000000e+01
2.300000000000000000e+01 9.800000000000000000e+01
2.400000000000000000e+01 9.800000000000000000e+01
2.500000000000000000e+01 9.800000000000000000e+01
2.600000000000000000e+01 9.800000000000000000e+01
1.530000000000000000e+02 9.800000000000000000e+01
1.540000000000000000e+02 9.800000000000000000e+01
1.550000000000000000e+02 9.800000000000000000e+01
1.560000000000000000e+02 9.800000000000000000e+01
1.570000000000000000e+02 9.800000000000000000e+01
1.580000000000000000e+02 9.800000000000000000e+01
1.590000000000000000e+02 9.800000000000000000e+01
2.940000000000000000e+02 9.800000000000000000e+01
2.950000000000000000e+02 9.800000000000000000e+01
2.960000000000000000e+02 9.800000000000000000e+01
2.970000000000000000e+02 9.800000000000000000e+01
2.980000000000000000e+02 9.800000000000000000e+01
2.990000000000000000e+02 9.800000000000000000e+01
3.000000000000000000e+02 9.800000000000000000e+01
4.390000000000000000e+02 9.800000000000000000e+01
4.400000000000000000e+02 9.800000000000000000e+01
4.410000000000000000e+02 9.800000000000000000e+01
4.430000000000000000e+02 9.800000000000000000e+01
4.440000000000000000e+02 9.800000000000000000e+01
4.450000000000000000e+02 9.800000000000000000e+01
5.710000000000000000e+02 9.800000000000000000e+01
5.720000000000000000e+02 9.800000000000000000e+01
5.730000000000000000e+02 9.800000000000000000e+01
5.750000000000000000e+02 9.800000000000000000e+01
5.760000000000000000e+02 9.800000000000000000e+01
5.770000000000000000e+02 9.800000000000000000e+01
6.930000000000000000e+02 9.800000000000000000e+01
6.940000000000000000e+02 9.800000000000000000e+01
6.950000000000000000e+02 9.800000000000000000e+01
6.960000000000000000e+02 9.800000000000000000e+01
6.970000000000000000e+02 9.800000000000000000e+01
6.980000000000000000e+02 9.800000000000000000e+01
8.210000000000000000e+02 9.800000000000000000e+01
8.220000000000000000e+02 9.800000000000000000e+01
8.230000000000000000e+02 9.800000000000000000e+01
8.240000000000000000e+02 9.800000000000000000e+01
8.250000000000000000e+02 9.800000000000000000e+01
8.260000000000000000e+02 9.800000000000000000e+01
8.270000000000000000e+02 9.800000000000000000e+01
9.580000000000000000e+02 9.800000000000000000e+01
9.590000000000000000e+02 9.800000000000000000e+01
9.600000000000000000e+02 9.800000000000000000e+01
9.620000000000000000e+02 9.800000000000000000e+01
9.630000000000000000e+02 9.800000000000000000e+01
9.640000000000000000e+02 9.800000000000000000e+01
1.000000000000000000e+01 9.900000000000000000e+01
1.100000000000000000e+01 9.900000000000000000e+01
1.200000000000000000e+01 9.900000000000000000e+01
2.000000000000000000e+01 9.900000000000000000e+01
2.100000000000000000e+01 9.900000000000000000e+01
2.200000000000000000e+01 9.900000000000000000e+01
2.300000000000000000e+01 9.900000000000000000e+01
2.400000000000000000e+01 9.900000000000000000e+01
2.500000000000000000e+01 9.900000000000000000e+01
2.600000000000000000e+01 9.900000000000000000e+01
1.530000000000000000e+02 9.900000000000000000e+01
1.540000000000000000e+02 9.900000000000000000e+01
1.550000000000000000e+02 9.900000000000000000e+01
1.560000000000000000e+02 9.900000000000000000e+01
1.570000000000000000e+02 9.900000000000000000e+01
1.580000000000000000e+02 9.900000000000000000e+01
1.590000000000000000e+02 9.900000000000000000e+01
2.940000000000000000e+02 9.900000000000000000e+01
2.950000000000000000e+02 9.900000000000000000e+01
2.960000000000000000e+02 9.900000000000000000e+01
2.970000000000000000e+02 9.900000000000000000e+01
2.980000000000000000e+02 9.900000000000000000e+01
2.990000000000000000e+02 9.900000000000000000e+01
3.000000000000000000e+02 9.900000000000000000e+01
4.390000000000000000e+02 9.900000000000000000e+01
4.400000000000000000e+02 9.900000000000000000e+01
4.410000000000000000e+02 9.900000000000000000e+01
4.430000000000000000e+02 9.900000000000000000e+01
4.440000000000000000e+02 9.900000000000000000e+01
4.450000000000000000e+02 9.900000000000000000e+01
5.710000000000000000e+02 9.900000000000000000e+01
5.720000000000000000e+02 9.900000000000000000e+01
5.730000000000000000e+02 9.900000000000000000e+01
5.750000000000000000e+02 9.900000000000000000e+01
5.760000000000000000e+02 9.900000000000000000e+01
5.770000000000000000e+02 9.900000000000000000e+01
6.930000000000000000e+02 9.900000000000000000e+01
6.940000000000000000e+02 9.900000000000000000e+01
6.950000000000000000e+02 9.900000000000000000e+01
6.960000000000000000e+02 9.900000000000000000e+01
6.970000000000000000e+02 9.900000000000000000e+01
6.980000000000000000e+02 9.900000000000000000e+01
8.210000000000000000e+02 9.900000000000000000e+01
8.220000000000000000e+02 9.900000000000000000e+01
8.230000000000000000e+02 9.900000000000000000e+01
8.250000000000000000e+02 9.900000000000000000e+01
8.260000000000000000e+02 9.900000000000000000e+01
8.270000000000000000e+02 9.900000000000000000e+01
9.580000000000000000e+02 9.900000000000000000e+01
9.590000000000000000e+02 9.900000000000000000e+01
9.600000000000000000e+02 9.900000000000000000e+01
9.620000000000000000e+02 9.900000000000000000e+01
9.630000000000000000e+02 9.900000000000000000e+01
9.640000000000000000e+02 9.900000000000000000e+01
1.000000000000000000e+01 1.000000000000000000e+02
1.100000000000000000e+01 1.000000000000000000e+02
1.200000000000000000e+01 1.000000000000000000e+02
2.000000000000000000e+01 1.000000000000000000e+02
2.100000000000000000e+01 1.000000000000000000e+02
2.200000000000000000e+01 1.000000000000000000e+02
2.300000000000000000e+01 1.000000000000000000e+02
2.400000000000000000e+01 1.000000000000000000e+02
2.500000000000000000e+01 1.000000000000000000e+02
2.600000000000000000e+01 1.000000000000000000e+02
1.530000000000000000e+02 1.000000000000000000e+02
1.540000000000000000e+02 1.000000000000000000e+02
1.550000000000000000e+02 1.000000000000000000e+02
1.560000000000000000e+02 1.000000000000000000e+02
1.570000000000000000e+02 1.000000000000000000e+02
1.580000000000000000e+02 1.000000000000000000e+02
1.590000000000000000e+02 1.000000000000000000e+02
2.940000000000000000e+02 1.000000000000000000e+02
2.950000000000000000e+02 1.000000000000000000e+02
2.960000000000000000e+02 1.000000000000000000e+02
2.970000000000000000e+02 1.000000000000000000e+02
2.980000000000000000e+02 1.000000000000000000e+02
2.990000000000000000e+02 1.000000000000000000e+02
3.000000000000000000e+02 1.000000000000000000e+02
4.390000000000000000e+02 1.000000000000000000e+02
4.400000000000000000e+02 1.000000000000000000e+02
4.410000000000000000e+02 1.000000000000000000e+02
4.430000000000000000e+02 1.000000000000000000e+02
4.440000000000000000e+02 1.000000000000000000e+02
4.450000000000000000e+02 1.000000000000000000e+02
5.710000000000000000e+02 1.000000000000000000e+02
5.720000000000000000e+02 1.000000000000000000e+02
5.730000000000000000e+02 1.000000000000000000e+02
5.750000000000000000e+02 1.000000000000000000e+02
5.760000000000000000e+02 1.000000000000000000e+02
5.770000000000000000e+02 1.000000000000000000e+02
6.930000000000000000e+02 1.000000000000000000e+02
6.940000000000000000e+02 1.000000000000000000e+02
6.950000000000000000e+02 1.000000000000000000e+02
6.960000000000000000e+02 1.000000000000000000e+02
6.970000000000000000e+02 1.000000000000000000e+02
6.980000000000000000e+02 1.000000000000000000e+02
8.210000000000000000e+02 1.000000000000000000e+02
8.220000000000000000e+02 1.000000000000000000e+02
8.230000000000000000e+02 1.000000000000000000e+02
8.250000000000000000e+02 1.000000000000000000e+02
8.260000000000000000e+02 1.000000000000000000e+02
8.270000000000000000e+02 1.000000000000000000e+02
9.580000000000000000e+02 1.000000000000000000e+02
9.590000000000000000e+02 1.000000000000000000e+02
9.600000000000000000e+02 1.000000000000000000e+02
9.620000000000000000e+02 1.000000000000000000e+02
9.630000000000000000e+02 1.000000000000000000e+02
9.640000000000000000e+02 1.000000000000000000e+02
1.000000000000000000e+01 1.010000000000000000e+02
1.100000000000000000e+01 1.010000000000000000e+02
1.200000000000000000e+01 1.010000000000000000e+02
2.000000000000000000e+01 1.010000000000000000e+02
2.100000000000000000e+01 1.010000000000000000e+02
2.200000000000000000e+01 1.010000000000000000e+02
2.300000000000000000e+01 1.010000000000000000e+02
2.400000000000000000e+01 1.010000000000000000e+02
2.500000000000000000e+01 1.010000000000000000e+02
2.600000000000000000e+01 1.010000000000000000e+02
1.530000000000000000e+02 1.010000000000000000e+02
1.540000000000000000e+02 1.010000000000000000e+02
1.550000000000000000e+02 1.010000000000000000e+02
1.560000000000000000e+02 1.010000000000000000e+02
1.570000000000000000e+02 1.010000000000000000e+02
1.580000000000000000e+02 1.010000000000000000e+02
1.590000000000000000e+02 1.010000000000000000e+02
2.940000000000000000e+02 1.010000000000000000e+02
2.950000000000000000e+02 1.010000000000000000e+02
2.960000000000000000e+02 1.010000000000000000e+02
2.970000000000000000e+02 1.010000000000000000e+02
2.980000000000000000e+02 1.010000000000000000e+02
2.990000000000000000e+02 1.010000000000000000e+02
3.000000000000000000e+02 1.010000000000000000e+02
4.390000000000000000e+02 1.010000000000000000e+02
4.400000000000000000e+02 1.010000000000000000e+02
4.410000000000000000e+02 1.010000000000000000e+02
4.430000000000000000e+02 1.010000000000000000e+02
4.440000000000000000e+02 1.010000000000000000e+02
4.450000000000000000e+02 1.010000000000000000e+02
5.710000000000000000e+02 1.010000000000000000e+02
5.720000000000000000e+02 1.010000000000000000e+02
5.730000000000000000e+02 1.010000000000000000e+02
5.750000000000000000e+02 1.010000000000000000e+02
5.760000000000000000e+02 1.010000000000000000e+02
5.770000000000000000e+02 1.010000000000000000e+02
6.930000000000000000e+02 1.010000000000000000e+02
6.940000000000000000e+02 1.010000000000000000e+02
6.950000000000000000e+02 1.010000000000000000e+02
6.960000000000000000e+02 1.010000000000000000e+02
6.970000000000000000e+02 1.010000000000000000e+02
6.980000000000000000e+02 1.010000000000000000e+02
8.210000000000000000e+02 1.010000000000000000e+02
8.220000000000000000e+02 1.010000000000000000e+02
8.230000000000000000e+02 1.010000000000000000e+02
8.250000000000000000e+02 1.010000000000000000e+02
8.260000000000000000e+02 1.010000000000000000e+02
8.270000000000000000e+02 1.010000000000000000e+02
9.580000000000000000e+02 1.010000000000000000e+02
9.590000000000000000e+02 1.010000000000000000e+02
9.600000000000000000e+02 1.010000000000000000e+02
9.620000000000000000e+02 1.010000000000000000e+02
9.630000000000000000e+02 1.010000000000000000e+02
9.640000000000000000e+02 1.010000000000000000e+02
1.000000000000000000e+01 1.020000000000000000e+02
1.100000000000000000e+01 1.020000000000000000e+02
1.200000000000000000e+01 1.020000000000000000e+02
2.000000000000000000e+01 1.020000000000000000e+02
2.100000000000000000e+01 1.020000000000000000e+02
2.200000000000000000e+01 1.020000000000000000e+02
2.300000000000000000e+01 1.020000000000000000e+02
2.400000000000000000e+01 1.020000000000000000e+02
2.500000000000000000e+01 1.020000000000000000e+02
2.600000000000000000e+01 1.020000000000000000e+02
1.530000000000000000e+02 1.020000000000000000e+02
1.540000000000000000e+02 1.020000000000000000e+02
1.550000000000000000e+02 1.020000000000000000e+02
1.560000000000000000e+02 1.020000000000000000e+02
1.570000000000000000e+02 1.020000000000000000e+02
1.580000000000000000e+02 1.020000000000000000e+02
1.590000000000000000e+02 1.020000000000000000e+02
2.940000000000000000e+02 1.020000000000000000e+02
2.950000000000000000e+02 1.020000000000000000e+02
2.960000000000000000e+02 1.020000000000000000e+02
2.970000000000000000e+02 1.020000000000000000e+02
2.980000000000000000e+02 1.020000000000000000e+02
2.990000000000000000e+02 1.020000000000000000e+02
3.000000000000000000e+02 1.020000000000000000e+02
4.390000000000000000e+02 1.020000000000000000e+02
4.400000000000000000e+02 1.020000000000000000e+02
4.410000000000000000e+02 1.020000000000000000e+02
4.430000000000000000e+02 1.020000000000000000e+02
4.440000000000000000e+02 1.020000000000000000e+02
4.450000000000000000e+02 1.020000000000000000e+02
5.710000000000000000e+02 1.020000000000000000e+02
5.720000000000000000e+02 1.020000000000000000e+02
5.730000000000000000e+02 1.020000000000000000e+02
5.750000000000000000e+02 1.020000000000000000e+02
5.760000000000000000e+02 1.020000000000000000e+02
5.770000000000000000e+02 1.020000000000000000e+02
6.930000000000000000e+02 1.020000000000000000e+02
6.940000000000000000e+02 1.020000000000000000e+02
6.950000000000000000e+02 1.020000000000000000e+02
6.960000000000000000e+02 1.020000000000000000e+02
6.970000000000000000e+02 1.020000000000000000e+02
6.980000000000000000e+02 1.020000000000000000e+02
6.990000000000000000e+02 1.020000000000000000e+02
8.210000000000000000e+02 1.020000000000000000e+02
8.220000000000000000e+02 1.020000000000000000e+02
8.230000000000000000e+02 1.020000000000000000e+02
8.250000000000000000e+02 1.020000000000000000e+02
8.260000000000000000e+02 1.020000000000000000e+02
8.270000000000000000e+02 1.020000000000000000e+02
9.580000000000000000e+02 1.020000000000000000e+02
9.590000000000000000e+02 1.020000000000000000e+02
9.600000000000000000e+02 1.020000000000000000e+02
9.620000000000000000e+02 1.020000000000000000e+02
9.630000000000000000e+02 1.020000000000000000e+02
