4.010000000000000000e+02 5.100000000000000000e+01
4.020000000000000000e+02 5.100000000000000000e+01
4.000000000000000000e+02 5.200000000000000000e+01
4.010000000000000000e+02 5.200000000000000000e+01
4.020000000000000000e+02 5.200000000000000000e+01
4.000000000000000000e+02 5.300000000000000000e+01
4.010000000000000000e+02 5.300000000000000000e+01
4.020000000000000000e+02 5.300000000000000000e+01
4.030000000000000000e+02 5.300000000000000000e+01
4.000000000000000000e+02 5.400000000000000000e+01
4.010000000000000000e+02 5.400000000000000000e+01
4.020000000000000000e+02 5.400000000000000000e+01
4.030000000000000000e+02 5.400000000000000000e+01
4.000000000000000000e+02 5.500000000000000000e+01
4.010000000000000000e+02 5.500000000000000000e+01
4.020000000000000000e+02 5.500000000000000000e+01
4.030000000000000000e+02 5.500000000000000000e+01
4.000000000000000000e+02 5.600000000000000000e+01
4.010000000000000000e+02 5.600000000000000000e+01
4.020000000000000000e+02 5.600000000000000000e+01
4.030000000000000000e+02 5.600000000000000000e+01
4.000000000000000000e+02 5.700000000000000000e+01
4.010000000000000000e+02 5.700000000000000000e+01
4.020000000000000000e+02 5.700000000000000000e+01
4.030000000000000000e+02 5.700000000000000000e+01
4.000000000000000000e+02 5.800000000000000000e+01
4.010000000000000000e+02 5.800000000000000000e+01
4.020000000000000000e+02 5.800000000000000000e+01
4.030000000000000000e+02 5.800000000000000000e+01
4.000000000000000000e+02 5.900000000000000000e+01
4.010000000000000000e+02 5.900000000000000000e+01
4.020000000000000000e+02 5.900000000000000000e+01
4.030000000000000000e+02 5.900000000000000000e+01
4.000000000000000000e+02 6.000000000000000000e+01
4.010000000000000000e+02 6.000000000000000000e+01
4.020000000000000000e+02 6.000000000000000000e+01
4.030000000000000000e+02 6.000000000000000000e+01
4.000000000000000000e+02 6.100000000000000000e+01
4.010000000000000000e+02 6.100000000000000000e+01
4.020000000000000000e+02 6.100000000000000000e+01
4.030000000000000000e+02 6.100000000000000000e+01
4.000000000000000000e+02 6.200000000000000000e+01
4.010000000000000000e+02 6.200000000000000000e+01
4.020000000000000000e+02 6.200000000000000000e+01
4.030000000000000000e+02 6.200000000000000000e+01
4.000000000000000000e+02 6.300000000000000000e+01
4.010000000000000000e+02 6.300000000000000000e+01
4.020000000000000000e+02 6.300000000000000000e+01
4.030000000000000000e+02 6.300000000000000000e+01
4.000000000000000000e+02 6.400000000000000000e+01
4.010000000000000000e+02 6.400000000000000000e+01
4.020000000000000000e+02 6.400000000000000000e+01
4.030000000000000000e+02 6.400000000000000000e+01
4.000000000000000000e+02 6.500000000000000000e+01
4.010000000000000000e+02 6.500000000000000000e+01
4.020000000000000000e+02 6.500000000000000000e+01
4.030000000000000000e+02 6.500000000000000000e+01
4.000000000000000000e+02 6.600000000000000000e+01
4.010000000000000000e+02 6.600000000000000000e+01
4.020000000000000000e+02 6.600000000000000000e+01
4.030000000000000000e+02 6.600000000000000000e+01
3.990000000000000000e+02 6.700000000000000000e+01
4.000000000000000000e+02 6.700000000000000000e+01
4.010000000000000000e+02 6.700000000000000000e+01
4.020000000000000000e+02 6.700000000000000000e+01
4.030000000000000000e+02 6.700000000000000000e+01
3.990000000000000000e+02 6.800000000000000000e+01
4.000000000000000000e+02 6.800000000000000000e+01
4.010000000000000000e+02 6.800000000000000000e+01
4.020000000000000000e+02 6.800000000000000000e+01
4.030000000000000000e+02 6.800000000000000000e+01
3.990000000000000000e+02 6.900000000000000000e+01
4.000000000000000000e+02 6.900000000000000000e+01
4.010000000000000000e+02 6.900000000000000000e+01
4.020000000000000000e+02 6.900000000000000000e+01
4.030000000000000000e+02 6.900000000000000000e+01
3.990000000000000000e+02 7.000000000000000000e+01
4.000000000000000000e+02 7.000000000000000000e+01
4.010000000000000000e+02 7.000000000000000000e+01
4.020000000000000000e+02 7.000000000000000000e+01
4.030000000000000000e+02 7.000000000000000000e+01
5.070000000000000000e+02 7.000000000000000000e+01
5.080000000000000000e+02 7.000000000000000000e+01
3.990000000000000000e+02 7.100000000000000000e+01
4.000000000000000000e+02 7.100000000000000000e+01
4.010000000000000000e+02 7.100000000000000000e+01
4.020000000000000000e+02 7.100000000000000000e+01
4.030000000000000000e+02 7.100000000000000000e+01
5.060000000000000000e+02 7.100000000000000000e+01
5.070000000000000000e+02 7.100000000000000000e+01
5.080000000000000000e+02 7.100000000000000000e+01
5.090000000000000000e+02 7.100000000000000000e+01
3.990000000000000000e+02 7.200000000000000000e+01
4.000000000000000000e+02 7.200000000000000000e+01
4.010000000000000000e+02 7.200000000000000000e+01
4.020000000000000000e+02 7.200000000000000000e+01
4.030000000000000000e+02 7.200000000000000000e+01
4.040000000000000000e+02 7.200000000000000000e+01
5.060000000000000000e+02 7.200000000000000000e+01
5.070000000000000000e+02 7.200000000000000000e+01
5.080000000000000000e+02 7.200000000000000000e+01
5.090000000000000000e+02 7.200000000000000000e+01
3.990000000000000000e+02 7.300000000000000000e+01
4.000000000000000000e+02 7.300000000000000000e+01
4.010000000000000000e+02 7.300000000000000000e+01
4.020000000000000000e+02 7.300000000000000000e+01
4.030000000000000000e+02 7.300000000000000000e+01
4.040000000000000000e+02 7.300000000000000000e+01
5.060000000000000000e+02 7.300000000000000000e+01
5.070000000000000000e+02 7.300000000000000000e+01
5.080000000000000000e+02 7.300000000000000000e+01
5.090000000000000000e+02 7.300000000000000000e+01
3.990000000000000000e+02 7.400000000000000000e+01
4.000000000000000000e+02 7.400000000000000000e+01
4.010000000000000000e+02 7.400000000000000000e+01
4.020000000000000000e+02 7.400000000000000000e+01
4.030000000000000000e+02 7.400000000000000000e+01
4.040000000000000000e+02 7.400000000000000000e+01
5.060000000000000000e+02 7.400000000000000000e+01
5.070000000000000000e+02 7.400000000000000000e+01
5.080000000000000000e+02 7.400000000000000000e+01
5.090000000000000000e+02 7.400000000000000000e+01
3.990000000000000000e+02 7.500000000000000000e+01
4.000000000000000000e+02 7.500000000000000000e+01
4.010000000000000000e+02 7.500000000000000000e+01
4.020000000000000000e+02 7.500000000000000000e+01
4.030000000000000000e+02 7.500000000000000000e+01
4.040000000000000000e+02 7.500000000000000000e+01
5.060000000000000000e+02 7.500000000000000000e+01
5.070000000000000000e+02 7.500000000000000000e+01
5.080000000000000000e+02 7.500000000000000000e+01
5.090000000000000000e+02 7.500000000000000000e+01
3.990000000000000000e+02 7.600000000000000000e+01
4.000000000000000000e+02 7.600000000000000000e+01
4.010000000000000000e+02 7.600000000000000000e+01
4.020000000000000000e+02 7.600000000000000000e+01
4.030000000000000000e+02 7.600000000000000000e+01
4.040000000000000000e+02 7.600000000000000000e+01
5.060000000000000000e+02 7.600000000000000000e+01
5.070000000000000000e+02 7.600000000000000000e+01
5.080000000000000000e+02 7.600000000000000000e+01
5.090000000000000000e+02 7.600000000000000000e+01
3.990000000000000000e+02 7.700000000000000000e+01
4.000000000000000000e+02 7.700000000000000000e+01
4.010000000000000000e+02 7.700000000000000000e+01
4.020000000000000000e+02 7.700000000000000000e+01
4.030000000000000000e+02 7.700000000000000000e+01
4.040000000000000000e+02 7.700000000000000000e+01
5.060000000000000000e+02 7.700000000000000000e+01
5.070000000000000000e+02 7.700000000000000000e+01
5.080000000000000000e+02 7.700000000000000000e+01
5.090000000000000000e+02 7.700000000000000000e+01
3.990000000000000000e+02 7.800000000000000000e+01
4.000000000000000000e+02 7.800000000000000000e+01
4.010000000000000000e+02 7.800000000000000000e+01
4.020000000000000000e+02 7.800000000000000000e+01
4.030000000000000000e+02 7.800000000000000000e+01
4.040000000000000000e+02 7.800000000000000000e+01
5.060000000000000000e+02 7.800000000000000000e+01
5.070000000000000000e+02 7.800000000000000000e+01
5.080000000000000000e+02 7.800000000000000000e+01
5.090000000000000000e+02 7.800000000000000000e+01
9.400000000000000000e+02 7.800000000000000000e+01
9.410000000000000000e+02 7.800000000000000000e+01
9.420000000000000000e+02 7.800000000000000000e+01
3.990000000000000000e+02 7.900000000000000000e+01
4.000000000000000000e+02 7.900000000000000000e+01
4.010000000000000000e+02 7.900000000000000000e+01
4.020000000000000000e+02 7.900000000000000000e+01
4.030000000000000000e+02 7.900000000000000000e+01
4.040000000000000000e+02 7.900000000000000000e+01
5.060000000000000000e+02 7.900000000000000000e+01
5.070000000000000000e+02 7.900000000000000000e+01
5.080000000000000000e+02 7.900000000000000000e+01
5.090000000000000000e+02 7.900000000000000000e+01
9.400000000000000000e+02 7.900000000000000000e+01
9.410000000000000000e+02 7.900000000000000000e+01
9.420000000000000000e+02 7.900000000000000000e+01
3.990000000000000000e+02 8.000000000000000000e+01
4.000000000000000000e+02 8.000000000000000000e+01
4.010000000000000000e+02 8.000000000000000000e+01
4.020000000000000000e+02 8.000000000000000000e+01
4.030000000000000000e+02 8.000000000000000000e+01
4.040000000000000000e+02 8.000000000000000000e+01
5.060000000000000000e+02 8.000000000000000000e+01
5.070000000000000000e+02 8.000000000000000000e+01
5.080000000000000000e+02 8.000000000000000000e+01
5.090000000000000000e+02 8.000000000000000000e+01
9.400000000000000000e+02 8.000000000000000000e+01
9.410000000000000000e+02 8.000000000000000000e+01
9.420000000000000000e+02 8.000000000000000000e+01
2.940000000000000000e+02 8.100000000000000000e+01
3.990000000000000000e+02 8.100000000000000000e+01
4.000000000000000000e+02 8.100000000000000000e+01
4.010000000000000000e+02 8.100000000000000000e+01
4.020000000000000000e+02 8.100000000000000000e+01
4.030000000000000000e+02 8.100000000000000000e+01
4.040000000000000000e+02 8.100000000000000000e+01
5.050000000000000000e+02 8.100000000000000000e+01
5.060000000000000000e+02 8.100000000000000000e+01
5.070000000000000000e+02 8.100000000000000000e+01
5.080000000000000000e+02 8.100000000000000000e+01
5.090000000000000000e+02 8.100000000000000000e+01
5.100000000000000000e+02 8.100000000000000000e+01
9.400000000000000000e+02 8.100000000000000000e+01
9.410000000000000000e+02 8.100000000000000000e+01
9.420000000000000000e+02 8.100000000000000000e+01
9.430000000000000000e+02 8.100000000000000000e+01
2.930000000000000000e+02 8.200000000000000000e+01
2.940000000000000000e+02 8.200000000000000000e+01
2.950000000000000000e+02 8.200000000000000000e+01
3.990000000000000000e+02 8.200000000000000000e+01
4.000000000000000000e+02 8.200000000000000000e+01
4.010000000000000000e+02 8.200000000000000000e+01
4.020000000000000000e+02 8.200000000000000000e+01
4.030000000000000000e+02 8.200000000000000000e+01
4.040000000000000000e+02 8.200000000000000000e+01
5.050000000000000000e+02 8.200000000000000000e+01
5.060000000000000000e+02 8.200000000000000000e+01
5.070000000000000000e+02 8.200000000000000000e+01
5.080000000000000000e+02 8.200000000000000000e+01
5.090000000000000000e+02 8.200000000000000000e+01
5.100000000000000000e+02 8.200000000000000000e+01
9.400000000000000000e+02 8.200000000000000000e+01
9.410000000000000000e+02 8.200000000000000000e+01
9.420000000000000000e+02 8.200000000000000000e+01
9.430000000000000000e+02 8.200000000000000000e+01
2.930000000000000000e+02 8.300000000000000000e+01
2.940000000000000000e+02 8.300000000000000000e+01
2.950000000000000000e+02 8.300000000000000000e+01
3.990000000000000000e+02 8.300000000000000000e+01
4.000000000000000000e+02 8.300000000000000000e+01
4.010000000000000000e+02 8.300000000000000000e+01
4.020000000000000000e+02 8.300000000000000000e+01
4.030000000000000000e+02 8.300000000000000000e+01
4.040000000000000000e+02 8.300000000000000000e+01
5.050000000000000000e+02 8.300000000000000000e+01
5.060000000000000000e+02 8.300000000000000000e+01
5.070000000000000000e+02 8.300000000000000000e+01
5.080000000000000000e+02 8.300000000000000000e+01
5.090000000000000000e+02 8.300000000000000000e+01
5.100000000000000000e+02 8.300000000000000000e+01
9.390000000000000000e+02 8.300000000000000000e+01
9.400000000000000000e+02 8.300000000000000000e+01
9.410000000000000000e+02 8.300000000000000000e+01
9.420000000000000000e+02 8.300000000000000000e+01
9.430000000000000000e+02 8.300000000000000000e+01
2.930000000000000000e+02 8.400000000000000000e+01
2.940000000000000000e+02 8.400000000000000000e+01
2.950000000000000000e+02 8.400000000000000000e+01
3.990000000000000000e+02 8.400000000000000000e+01
4.000000000000000000e+02 8.400000000000000000e+01
4.010000000000000000e+02 8.400000000000000000e+01
4.020000000000000000e+02 8.400000000000000000e+01
4.030000000000000000e+02 8.400000000000000000e+01
4.040000000000000000e+02 8.400000000000000000e+01
5.050000000000000000e+02 8.400000000000000000e+01
5.060000000000000000e+02 8.400000000000000000e+01
5.070000000000000000e+02 8.400000000000000000e+01
5.080000000000000000e+02 8.400000000000000000e+01
5.090000000000000000e+02 8.400000000000000000e+01
5.100000000000000000e+02 8.400000000000000000e+01
9.390000000000000000e+02 8.400000000000000000e+01
9.400000000000000000e+02 8.400000000000000000e+01
9.410000000000000000e+02 8.400000000000000000e+01
9.420000000000000000e+02 8.400000000000000000e+01
9.430000000000000000e+02 8.400000000000000000e+01
2.930000000000000000e+02 8.500000000000000000e+01
2.940000000000000000e+02 8.500000000000000000e+01
2.950000000000000000e+02 8.500000000000000000e+01
3.990000000000000000e+02 8.500000000000000000e+01
4.000000000000000000e+02 8.500000000000000000e+01
4.010000000000000000e+02 8.500000000000000000e+01
4.020000000000000000e+02 8.500000000000000000e+01
4.030000000000000000e+02 8.500000000000000000e+01
4.040000000000000000e+02 8.500000000000000000e+01
5.050000000000000000e+02 8.500000000000000000e+01
5.060000000000000000e+02 8.500000000000000000e+01
5.070000000000000000e+02 8.500000000000000000e+01
5.080000000000000000e+02 8.500000000000000000e+01
5.090000000000000000e+02 8.500000000000000000e+01
5.100000000000000000e+02 8.500000000000000000e+01
6.140000000000000000e+02 8.500000000000000000e+01
9.390000000000000000e+02 8.500000000000000000e+01
9.400000000000000000e+02 8.500000000000000000e+01
9.410000000000000000e+02 8.500000000000000000e+01
9.420000000000000000e+02 8.500000000000000000e+01
9.430000000000000000e+02 8.500000000000000000e+01
2.920000000000000000e+02 8.600000000000000000e+01
2.930000000000000000e+02 8.600000000000000000e+01
2.940000000000000000e+02 8.600000000000000000e+01
2.950000000000000000e+02 8.600000000000000000e+01
3.990000000000000000e+02 8.600000000000000000e+01
4.000000000000000000e+02 8.600000000000000000e+01
4.010000000000000000e+02 8.600000000000000000e+01
4.020000000000000000e+02 8.600000000000000000e+01
4.030000000000000000e+02 8.600000000000000000e+01
4.040000000000000000e+02 8.600000000000000000e+01
5.050000000000000000e+02 8.600000000000000000e+01
5.060000000000000000e+02 8.600000000000000000e+01
5.070000000000000000e+02 8.600000000000000000e+01
5.080000000000000000e+02 8.600000000000000000e+01
5.090000000000000000e+02 8.600000000000000000e+01
5.100000000000000000e+02 8.600000000000000000e+01
6.130000000000000000e+02 8.600000000000000000e+01
6.140000000000000000e+02 8.600000000000000000e+01
6.150000000000000000e+02 8.600000000000000000e+01
9.390000000000000000e+02 8.600000000000000000e+01
9.400000000000000000e+02 8.600000000000000000e+01
9.410000000000000000e+02 8.600000000000000000e+01
9.420000000000000000e+02 8.600000000000000000e+01
9.430000000000000000e+02 8.600000000000000000e+01
2.920000000000000000e+02 8.700000000000000000e+01
2.930000000000000000e+02 8.700000000000000000e+01
2.940000000000000000e+02 8.700000000000000000e+01
2.950000000000000000e+02 8.700000000000000000e+01
2.960000000000000000e+02 8.700000000000000000e+01
3.990000000000000000e+02 8.700000000000000000e+01
4.000000000000000000e+02 8.700000000000000000e+01
4.010000000000000000e+02 8.700000000000000000e+01
4.020000000000000000e+02 8.700000000000000000e+01
4.030000000000000000e+02 8.700000000000000000e+01
4.040000000000000000e+02 8.700000000000000000e+01
5.050000000000000000e+02 8.700000000000000000e+01
5.060000000000000000e+02 8.700000000000000000e+01
5.070000000000000000e+02 8.700000000000000000e+01
5.080000000000000000e+02 8.700000000000000000e+01
5.090000000000000000e+02 8.700000000000000000e+01
5.100000000000000000e+02 8.700000000000000000e+01
6.130000000000000000e+02 8.700000000000000000e+01
6.140000000000000000e+02 8.700000000000000000e+01
6.150000000000000000e+02 8.700000000000000000e+01
6.160000000000000000e+02 8.700000000000000000e+01
9.390000000000000000e+02 8.700000000000000000e+01
9.400000000000000000e+02 8.700000000000000000e+01
9.410000000000000000e+02 8.700000000000000000e+01
9.420000000000000000e+02 8.700000000000000000e+01
9.430000000000000000e+02 8.700000000000000000e+01
2.920000000000000000e+02 8.800000000000000000e+01
2.930000000000000000e+02 8.800000000000000000e+01
2.940000000000000000e+02 8.800000000000000000e+01
2.950000000000000000e+02 8.800000000000000000e+01
2.960000000000000000e+02 8.800000000000000000e+01
3.990000000000000000e+02 8.800000000000000000e+01
4.000000000000000000e+02 8.800000000000000000e+01
4.010000000000000000e+02 8.800000000000000000e+01
4.020000000000000000e+02 8.800000000000000000e+01
4.030000000000000000e+02 8.800000000000000000e+01
4.040000000000000000e+02 8.800000000000000000e+01
5.050000000000000000e+02 8.800000000000000000e+01
5.060000000000000000e+02 8.800000000000000000e+01
5.070000000000000000e+02 8.800000000000000000e+01
5.080000000000000000e+02 8.800000000000000000e+01
5.090000000000000000e+02 8.800000000000000000e+01
5.100000000000000000e+02 8.800000000000000000e+01
6.130000000000000000e+02 8.800000000000000000e+01
6.140000000000000000e+02 8.800000000000000000e+01
6.150000000000000000e+02 8.800000000000000000e+01
6.160000000000000000e+02 8.800000000000000000e+01
9.390000000000000000e+02 8.800000000000000000e+01
9.400000000000000000e+02 8.800000000000000000e+01
9.410000000000000000e+02 8.800000000000000000e+01
9.420000000000000000e+02 8.800000000000000000e+01
9.430000000000000000e+02 8.800000000000000000e+01
2.920000000000000000e+02 8.900000000000000000e+01
2.930000000000000000e+02 8.900000000000000000e+01
2.940000000000000000e+02 8.900000000000000000e+01
2.950000000000000000e+02 8.900000000000000000e+01
2.960000000000000000e+02 8.900000000000000000e+01
3.990000000000000000e+02 8.900000000000000000e+01
4.000000000000000000e+02 8.900000000000000000e+01
4.010000000000000000e+02 8.900000000000000000e+01
4.020000000000000000e+02 8.900000000000000000e+01
4.030000000000000000e+02 8.900000000000000000e+01
4.040000000000000000e+02 8.900000000000000000e+01
5.050000000000000000e+02 8.900000000000000000e+01
5.060000000000000000e+02 8.900000000000000000e+01
5.070000000000000000e+02 8.900000000000000000e+01
5.080000000000000000e+02 8.900000000000000000e+01
5.090000000000000000e+02 8.900000000000000000e+01
5.100000000000000000e+02 8.900000000000000000e+01
6.130000000000000000e+02 8.900000000000000000e+01
6.140000000000000000e+02 8.900000000000000000e+01
6.150000000000000000e+02 8.900000000000000000e+01
6.160000000000000000e+02 8.900000000000000000e+01
9.390000000000000000e+02 8.900000000000000000e+01
9.400000000000000000e+02 8.900000000000000000e+01
9.410000000000000000e+02 8.900000000000000000e+01
9.420000000000000000e+02 8.900000000000000000e+01
9.430000000000000000e+02 8.900000000000000000e+01
7.900000000000000000e+01 9.000000000000000000e+01
1.850000000000000000e+02 9.000000000000000000e+01
1.860000000000000000e+02 9.000000000000000000e+01
1.870000000000000000e+02 9.000000000000000000e+01
2.920000000000000000e+02 9.000000000000000000e+01
2.930000000000000000e+02 9.000000000000000000e+01
2.940000000000000000e+02 9.000000000000000000e+01
2.950000000000000000e+02 9.000000000000000000e+01
2.960000000000000000e+02 9.000000000000000000e+01
3.990000000000000000e+02 9.000000000000000000e+01
4.000000000000000000e+02 9.000000000000000000e+01
4.010000000000000000e+02 9.000000000000000000e+01
4.020000000000000000e+02 9.000000000000000000e+01
4.030000000000000000e+02 9.000000000000000000e+01
4.040000000000000000e+02 9.000000000000000000e+01
5.050000000000000000e+02 9.000000000000000000e+01
5.060000000000000000e+02 9.000000000000000000e+01
5.070000000000000000e+02 9.000000000000000000e+01
5.080000000000000000e+02 9.000000000000000000e+01
5.090000000000000000e+02 9.000000000000000000e+01
5.100000000000000000e+02 9.000000000000000000e+01
6.130000000000000000e+02 9.000000000000000000e+01
6.140000000000000000e+02 9.000000000000000000e+01
6.150000000000000000e+02 9.000000000000000000e+01
6.160000000000000000e+02 9.000000000000000000e+01
9.390000000000000000e+02 9.000000000000000000e+01
9.400000000000000000e+02 9.000000000000000000e+01
9.410000000000000000e+02 9.000000000000000000e+01
9.420000000000000000e+02 9.000000000000000000e+01
9.430000000000000000e+02 9.000000000000000000e+01
7.800000000000000000e+01 9.100000000000000000e+01
7.900000000000000000e+01 9.100000000000000000e+01
8.000000000000000000e+01 9.100000000000000000e+01
1.850000000000000000e+02 9.100000000000000000e+01
1.860000000000000000e+02 9.100000000000000000e+01
1.870000000000000000e+02 9.100000000000000000e+01
1.880000000000000000e+02 9.100000000000000000e+01
2.920000000000000000e+02 9.100000000000000000e+01
2.930000000000000000e+02 9.100000000000000000e+01
2.940000000000000000e+02 9.100000000000000000e+01
2.950000000000000000e+02 9.100000000000000000e+01
2.960000000000000000e+02 9.100000000000000000e+01
3.980000000000000000e+02 9.100000000000000000e+01
3.990000000000000000e+02 9.100000000000000000e+01
4.000000000000000000e+02 9.100000000000000000e+01
4.010000000000000000e+02 9.100000000000000000e+01
4.020000000000000000e+02 9.100000000000000000e+01
4.030000000000000000e+02 9.100000000000000000e+01
4.040000000000000000e+02 9.100000000000000000e+01
5.050000000000000000e+02 9.100000000000000000e+01
5.060000000000000000e+02 9.100000000000000000e+01
5.070000000000000000e+02 9.100000000000000000e+01
5.080000000000000000e+02 9.100000000000000000e+01
5.090000000000000000e+02 9.100000000000000000e+01
5.100000000000000000e+02 9.100000000000000000e+01
6.120000000000000000e+02 9.100000000000000000e+01
6.130000000000000000e+02 9.100000000000000000e+01
6.140000000000000000e+02 9.100000000000000000e+01
6.150000000000000000e+02 9.100000000000000000e+01
6.160000000000000000e+02 9.100000000000000000e+01
8.300000000000000000e+02 9.100000000000000000e+01
8.310000000000000000e+02 9.100000000000000000e+01
9.390000000000000000e+02 9.100000000000000000e+01
9.400000000000000000e+02 9.100000000000000000e+01
9.410000000000000000e+02 9.100000000000000000e+01
9.420000000000000000e+02 9.100000000000000000e+01
9.430000000000000000e+02 9.100000000000000000e+01
7.800000000000000000e+01 9.200000000000000000e+01
7.900000000000000000e+01 9.200000000000000000e+01
8.000000000000000000e+01 9.200000000000000000e+01
1.850000000000000000e+02 9.200000000000000000e+01
1.860000000000000000e+02 9.200000000000000000e+01
1.870000000000000000e+02 9.200000000000000000e+01
1.880000000000000000e+02 9.200000000000000000e+01
2.920000000000000000e+02 9.200000000000000000e+01
2.930000000000000000e+02 9.200000000000000000e+01
2.940000000000000000e+02 9.200000000000000000e+01
2.950000000000000000e+02 9.200000000000000000e+01
2.960000000000000000e+02 9.200000000000000000e+01
3.980000000000000000e+02 9.200000000000000000e+01
3.990000000000000000e+02 9.200000000000000000e+01
4.000000000000000000e+02 9.200000000000000000e+01
4.010000000000000000e+02 9.200000000000000000e+01
4.020000000000000000e+02 9.200000000000000000e+01
4.030000000000000000e+02 9.200000000000000000e+01
4.040000000000000000e+02 9.200000000000000000e+01
5.050000000000000000e+02 9.200000000000000000e+01
5.060000000000000000e+02 9.200000000000000000e+01
5.070000000000000000e+02 9.200000000000000000e+01
5.080000000000000000e+02 9.200000000000000000e+01
5.090000000000000000e+02 9.200000000000000000e+01
5.100000000000000000e+02 9.200000000000000000e+01
6.120000000000000000e+02 9.200000000000000000e+01
6.130000000000000000e+02 9.200000000000000000e+01
6.140000000000000000e+02 9.200000000000000000e+01
6.150000000000000000e+02 9.200000000000000000e+01
6.160000000000000000e+02 9.200000000000000000e+01
8.290000000000000000e+02 9.200000000000000000e+01
8.300000000000000000e+02 9.200000000000000000e+01
8.310000000000000000e+02 9.200000000000000000e+01
8.320000000000000000e+02 9.200000000000000000e+01
9.390000000000000000e+02 9.200000000000000000e+01
9.400000000000000000e+02 9.200000000000000000e+01
9.410000000000000000e+02 9.200000000000000000e+01
9.420000000000000000e+02 9.200000000000000000e+01
9.430000000000000000e+02 9.200000000000000000e+01
7.700000000000000000e+01 9.300000000000000000e+01
7.800000000000000000e+01 9.300000000000000000e+01
7.900000000000000000e+01 9.300000000000000000e+01
8.000000000000000000e+01 9.300000000000000000e+01
1.850000000000000000e+02 9.300000000000000000e+01
1.860000000000000000e+02 9.300000000000000000e+01
1.870000000000000000e+02 9.300000000000000000e+01
1.880000000000000000e+02 9.300000000000000000e+01
2.920000000000000000e+02 9.300000000000000000e+01
2.930000000000000000e+02 9.300000000000000000e+01
2.940000000000000000e+02 9.300000000000000000e+01
2.950000000000000000e+02 9.300000000000000000e+01
2.960000000000000000e+02 9.300000000000000000e+01
3.980000000000000000e+02 9.300000000000000000e+01
3.990000000000000000e+02 9.300000000000000000e+01
4.000000000000000000e+02 9.300000000000000000e+01
4.010000000000000000e+02 9.300000000000000000e+01
4.020000000000000000e+02 9.300000000000000000e+01
4.030000000000000000e+02 9.300000000000000000e+01
4.040000000000000000e+02 9.300000000000000000e+01
5.050000000000000000e+02 9.300000000000000000e+01
5.060000000000000000e+02 9.300000000000000000e+01
5.070000000000000000e+02 9.300000000000000000e+01
5.080000000000000000e+02 9.300000000000000000e+01
5.090000000000000000e+02 9.300000000000000000e+01
5.100000000000000000e+02 9.300000000000000000e+01
6.120000000000000000e+02 9.300000000000000000e+01
6.130000000000000000e+02 9.300000000000000000e+01
6.140000000000000000e+02 9.300000000000000000e+01
6.150000000000000000e+02 9.300000000000000000e+01
6.160000000000000000e+02 9.300000000000000000e+01
8.290000000000000000e+02 9.300000000000000000e+01
8.300000000000000000e+02 9.300000000000000000e+01
8.310000000000000000e+02 9.300000000000000000e+01
8.320000000000000000e+02 9.300000000000000000e+01
9.390000000000000000e+02 9.300000000000000000e+01
9.400000000000000000e+02 9.300000000000000000e+01
9.410000000000000000e+02 9.300000000000000000e+01
9.420000000000000000e+02 9.300000000000000000e+01
9.430000000000000000e+02 9.300000000000000000e+01
7.700000000000000000e+01 9.400000000000000000e+01
7.800000000000000000e+01 9.400000000000000000e+01
7.900000000000000000e+01 9.400000000000000000e+01
8.000000000000000000e+01 9.400000000000000000e+01
8.100000000000000000e+01 9.400000000000000000e+01
1.850000000000000000e+02 9.400000000000000000e+01
1.860000000000000000e+02 9.400000000000000000e+01
1.870000000000000000e+02 9.400000000000000000e+01
1.880000000000000000e+02 9.400000000000000000e+01
2.920000000000000000e+02 9.400000000000000000e+01
2.930000000000000000e+02 9.400000000000000000e+01
2.940000000000000000e+02 9.400000000000000000e+01
2.950000000000000000e+02 9.400000000000000000e+01
2.960000000000000000e+02 9.400000000000000000e+01
3.980000000000000000e+02 9.400000000000000000e+01
3.990000000000000000e+02 9.400000000000000000e+01
4.000000000000000000e+02 9.400000000000000000e+01
4.020000000000000000e+02 9.400000000000000000e+01
4.030000000000000000e+02 9.400000000000000000e+01
4.040000000000000000e+02 9.400000000000000000e+01
5.050000000000000000e+02 9.400000000000000000e+01
5.060000000000000000e+02 9.400000000000000000e+01
5.070000000000000000e+02 9.400000000000000000e+01
5.080000000000000000e+02 9.400000000000000000e+01
5.090000000000000000e+02 9.400000000000000000e+01
5.100000000000000000e+02 9.400000000000000000e+01
6.120000000000000000e+02 9.400000000000000000e+01
6.130000000000000000e+02 9.400000000000000000e+01
6.140000000000000000e+02 9.400000000000000000e+01
6.150000000000000000e+02 9.400000000000000000e+01
6.160000000000000000e+02 9.400000000000000000e+01
8.290000000000000000e+02 9.400000000000000000e+01
8.300000000000000000e+02 9.400000000000000000e+01
8.310000000000000000e+02 9.400000000000000000e+01
8.320000000000000000e+02 9.400000000000000000e+01
9.390000000000000000e+02 9.400000000000000000e+01
9.400000000000000000e+02 9.400000000000000000e+01
9.410000000000000000e+02 9.400000000000000000e+01
9.420000000000000000e+02 9.400000000000000000e+01
9.430000000000000000e+02 9.400000000000000000e+01
7.700000000000000000e+01 9.500000000000000000e+01
7.800000000000000000e+01 9.500000000000000000e+01
7.900000000000000000e+01 9.500000000000000000e+01
8.000000000000000000e+01 9.500000000000000000e+01
8.100000000000000000e+01 9.500000000000000000e+01
1.850000000000000000e+02 9.500000000000000000e+01
1.860000000000000000e+02 9.500000000000000000e+01
1.870000000000000000e+02 9.500000000000000000e+01
1.880000000000000000e+02 9.500000000000000000e+01
2.920000000000000000e+02 9.500000000000000000e+01
2.930000000000000000e+02 9.500000000000000000e+01
2.940000000000000000e+02 9.500000000000000000e+01
2.950000000000000000e+02 9.500000000000000000e+01
2.960000000000000000e+02 9.500000000000000000e+01
3.980000000000000000e+02 9.500000000000000000e+01
3.990000000000000000e+02 9.500000000000000000e+01
4.000000000000000000e+02 9.500000000000000000e+01
4.020000000000000000e+02 9.500000000000000000e+01
4.030000000000000000e+02 9.500000000000000000e+01
4.040000000000000000e+02 9.500000000000000000e+01
5.050000000000000000e+02 9.500000000000000000e+01
5.060000000000000000e+02 9.500000000000000000e+01
5.070000000000000000e+02 9.500000000000000000e+01
5.080000000000000000e+02 9.500000000000000000e+01
5.090000000000000000e+02 9.500000000000000000e+01
5.100000000000000000e+02 9.500000000000000000e+01
6.120000000000000000e+02 9.500000000000000000e+01
6.130000000000000000e+02 9.500000000000000000e+01
6.140000000000000000e+02 9.500000000000000000e+01
6.150000000000000000e+02 9.500000000000000000e+01
6.160000000000000000e+02 9.500000000000000000e+01
8.290000000000000000e+02 9.500000000000000000e+01
8.300000000000000000e+02 9.500000000000000000e+01
8.310000000000000000e+02 9.500000000000000000e+01
8.320000000000000000e+02 9.500000000000000000e+01
9.380000000000000000e+02 9.500000000000000000e+01
9.390000000000000000e+02 9.500000000000000000e+01
9.400000000000000000e+02 9.500000000000000000e+01
9.410000000000000000e+02 9.500000000000000000e+01
9.420000000000000000e+02 9.500000000000000000e+01
9.430000000000000000e+02 9.500000000000000000e+01
7.700000000000000000e+01 9.600000000000000000e+01
7.800000000000000000e+01 9.600000000000000000e+01
7.900000000000000000e+01 9.600000000000000000e+01
8.000000000000000000e+01 9.600000000000000000e+01
8.100000000000000000e+01 9.600000000000000000e+01
1.850000000000000000e+02 9.600000000000000000e+01
1.860000000000000000e+02 9.600000000000000000e+01
1.870000000000000000e+02 9.600000000000000000e+01
1.880000000000000000e+02 9.600000000000000000e+01
2.920000000000000000e+02 9.600000000000000000e+01
2.930000000000000000e+02 9.600000000000000000e+01
2.940000000000000000e+02 9.600000000000000000e+01
2.950000000000000000e+02 9.600000000000000000e+01
2.960000000000000000e+02 9.600000000000000000e+01
3.980000000000000000e+02 9.600000000000000000e+01
3.990000000000000000e+02 9.600000000000000000e+01
4.000000000000000000e+02 9.600000000000000000e+01
4.020000000000000000e+02 9.600000000000000000e+01
4.030000000000000000e+02 9.600000000000000000e+01
4.040000000000000000e+02 9.600000000000000000e+01
5.040000000000000000e+02 9.600000000000000000e+01
5.050000000000000000e+02 9.600000000000000000e+01
5.060000000000000000e+02 9.600000000000000000e+01
5.070000000000000000e+02 9.600000000000000000e+01
5.080000000000000000e+02 9.600000000000000000e+01
5.090000000000000000e+02 9.600000000000000000e+01
5.100000000000000000e+02 9.600000000000000000e+01
6.120000000000000000e+02 9.600000000000000000e+01
6.130000000000000000e+02 9.600000000000000000e+01
6.140000000000000000e+02 9.600000000000000000e+01
6.150000000000000000e+02 9.600000000000000000e+01
6.160000000000000000e+02 9.600000000000000000e+01
8.290000000000000000e+02 9.600000000000000000e+01
8.300000000000000000e+02 9.600000000000000000e+01
8.310000000000000000e+02 9.600000000000000000e+01
8.320000000000000000e+02 9.600000000000000000e+01
9.380000000000000000e+02 9.600000000000000000e+01
9.390000000000000000e+02 9.600000000000000000e+01
9.400000000000000000e+02 9.600000000000000000e+01
9.410000000000000000e+02 9.600000000000000000e+01
9.420000000000000000e+02 9.600000000000000000e+01
9.430000000000000000e+02 9.600000000000000000e+01
7.700000000000000000e+01 9.700000000000000000e+01
7.800000000000000000e+01 9.700000000000000000e+01
7.900000000000000000e+01 9.700000000000000000e+01
8.000000000000000000e+01 9.700000000000000000e+01
8.100000000000000000e+01 9.700000000000000000e+01
1.850000000000000000e+02 9.700000000000000000e+01
1.860000000000000000e+02 9.700000000000000000e+01
1.870000000000000000e+02 9.700000000000000000e+01
1.880000000000000000e+02 9.700000000000000000e+01
2.920000000000000000e+02 9.700000000000000000e+01
2.930000000000000000e+02 9.700000000000000000e+01
2.940000000000000000e+02 9.700000000000000000e+01
2.950000000000000000e+02 9.700000000000000000e+01
2.960000000000000000e+02 9.700000000000000000e+01
3.980000000000000000e+02 9.700000000000000000e+01
3.990000000000000000e+02 9.700000000000000000e+01
4.000000000000000000e+02 9.700000000000000000e+01
4.020000000000000000e+02 9.700000000000000000e+01
4.030000000000000000e+02 9.700000000000000000e+01
4.040000000000000000e+02 9.700000000000000000e+01
5.040000000000000000e+02 9.700000000000000000e+01
5.050000000000000000e+02 9.700000000000000000e+01
5.060000000000000000e+02 9.700000000000000000e+01
5.070000000000000000e+02 9.700000000000000000e+01
5.080000000000000000e+02 9.700000000000000000e+01
5.090000000000000000e+02 9.700000000000000000e+01
5.100000000000000000e+02 9.700000000000000000e+01
6.120000000000000000e+02 9.700000000000000000e+01
6.130000000000000000e+02 9.700000000000000000e+01
6.140000000000000000e+02 9.700000000000000000e+01
6.150000000000000000e+02 9.700000000000000000e+01
6.160000000000000000e+02 9.700000000000000000e+01
8.290000000000000000e+02 9.700000000000000000e+01
8.300000000000000000e+02 9.700000000000000000e+01
8.310000000000000000e+02 9.700000000000000000e+01
8.320000000000000000e+02 9.700000000000000000e+01
9.380000000000000000e+02 9.700000000000000000e+01
9.390000000000000000e+02 9.700000000000000000e+01
9.400000000000000000e+02 9.700000000000000000e+01
9.410000000000000000e+02 9.700000000000000000e+01
9.420000000000000000e+02 9.700000000000000000e+01
9.430000000000000000e+02 9.700000000000000000e+01
7.700000000000000000e+01 9.800000000000000000e+01
7.800000000000000000e+01 9.800000000000000000e+01
7.900000000000000000e+01 9.800000000000000000e+01
8.000000000000000000e+01 9.800000000000000000e+01
8.100000000000000000e+01 9.800000000000000000e+01
1.850000000000000000e+02 9.800000000000000000e+01
1.860000000000000000e+02 9.800000000000000000e+01
1.870000000000000000e+02 9.800000000000000000e+01
1.880000000000000000e+02 9.800000000000000000e+01
2.920000000000000000e+02 9.800000000000000000e+01
2.930000000000000000e+02 9.800000000000000000e+01
2.940000000000000000e+02 9.800000000000000000e+01
2.950000000000000000e+02 9.800000000000000000e+01
2.960000000000000000e+02 9.800000000000000000e+01
3.980000000000000000e+02 9.800000000000000000e+01
3.990000000000000000e+02 9.800000000000000000e+01
4.000000000000000000e+02 9.800000000000000000e+01
4.020000000000000000e+02 9.800000000000000000e+01
4.030000000000000000e+02 9.800000000000000000e+01
4.040000000000000000e+02 9.800000000000000000e+01
5.040000000000000000e+02 9.800000000000000000e+01
5.050000000000000000e+02 9.800000000000000000e+01
5.060000000000000000e+02 9.800000000000000000e+01
5.070000000000000000e+02 9.800000000000000000e+01
5.080000000000000000e+02 9.800000000000000000e+01
5.090000000000000000e+02 9.800000000000000000e+01
5.100000000000000000e+02 9.800000000000000000e+01
6.120000000000000000e+02 9.800000000000000000e+01
6.130000000000000000e+02 9.800000000000000000e+01
6.140000000000000000e+02 9.800000000000000000e+01
6.150000000000000000e+02 9.800000000000000000e+01
6.160000000000000000e+02 9.800000000000000000e+01
8.290000000000000000e+02 9.800000000000000000e+01
8.300000000000000000e+02 9.800000000000000000e+01
8.310000000000000000e+02 9.800000000000000000e+01
8.320000000000000000e+02 9.800000000000000000e+01
9.380000000000000000e+02 9.800000000000000000e+01
9.390000000000000000e+02 9.800000000000000000e+01
9.400000000000000000e+02 9.800000000000000000e+01
9.410000000000000000e+02 9.800000000000000000e+01
9.420000000000000000e+02 9.800000000000000000e+01
9.430000000000000000e+02 9.800000000000000000e+01
7.700000000000000000e+01 9.900000000000000000e+01
7.800000000000000000e+01 9.900000000000000000e+01
7.900000000000000000e+01 9.900000000000000000e+01
8.000000000000000000e+01 9.900000000000000000e+01
8.100000000000000000e+01 9.900000000000000000e+01
1.840000000000000000e+02 9.900000000000000000e+01
1.850000000000000000e+02 9.900000000000000000e+01
1.860000000000000000e+02 9.900000000000000000e+01
1.870000000000000000e+02 9.900000000000000000e+01
1.880000000000000000e+02 9.900000000000000000e+01
2.920000000000000000e+02 9.900000000000000000e+01
2.930000000000000000e+02 9.900000000000000000e+01
2.940000000000000000e+02 9.900000000000000000e+01
2.950000000000000000e+02 9.900000000000000000e+01
2.960000000000000000e+02 9.900000000000000000e+01
3.980000000000000000e+02 9.900000000000000000e+01
3.990000000000000000e+02 9.900000000000000000e+01
4.000000000000000000e+02 9.900000000000000000e+01
4.020000000000000000e+02 9.900000000000000000e+01
4.030000000000000000e+02 9.900000000000000000e+01
4.040000000000000000e+02 9.900000000000000000e+01
5.040000000000000000e+02 9.900000000000000000e+01
5.050000000000000000e+02 9.900000000000000000e+01
5.060000000000000000e+02 9.900000000000000000e+01
5.070000000000000000e+02 9.900000000000000000e+01
5.080000000000000000e+02 9.900000000000000000e+01
5.090000000000000000e+02 9.900000000000000000e+01
5.100000000000000000e+02 9.900000000000000000e+01
6.120000000000000000e+02 9.900000000000000000e+01
6.130000000000000000e+02 9.900000000000000000e+01
6.140000000000000000e+02 9.900000000000000000e+01
6.150000000000000000e+02 9.900000000000000000e+01
6.160000000000000000e+02 9.900000000000000000e+01
8.290000000000000000e+02 9.900000000000000000e+01
8.300000000000000000e+02 9.900000000000000000e+01
8.310000000000000000e+02 9.900000000000000000e+01
8.320000000000000000e+02 9.900000000000000000e+01
9.380000000000000000e+02 9.900000000000000000e+01
9.390000000000000000e+02 9.900000000000000000e+01
9.400000000000000000e+02 9.900000000000000000e+01
9.410000000000000000e+02 9.900000000000000000e+01
9.420000000000000000e+02 9.900000000000000000e+01
9.430000000000000000e+02 9.900000000000000000e+01
7.700000000000000000e+01 1.000000000000000000e+02
7.800000000000000000e+01 1.000000000000000000e+02
7.900000000000000000e+01 1.000000000000000000e+02
8.000000000000000000e+01 1.000000000000000000e+02
8.100000000000000000e+01 1.000000000000000000e+02
1.840000000000000000e+02 1.000000000000000000e+02
1.850000000000000000e+02 1.000000000000000000e+02
1.860000000000000000e+02 1.000000000000000000e+02
1.870000000000000000e+02 1.000000000000000000e+02
1.880000000000000000e+02 1.000000000000000000e+02
2.920000000000000000e+02 1.000000000000000000e+02
2.930000000000000000e+02 1.000000000000000000e+02
2.940000000000000000e+02 1.000000000000000000e+02
2.950000000000000000e+02 1.000000000000000000e+02
2.960000000000000000e+02 1.000000000000000000e+02
3.980000000000000000e+02 1.000000000000000000e+02
3.990000000000000000e+02 1.000000000000000000e+02
4.000000000000000000e+02 1.000000000000000000e+02
4.020000000000000000e+02 1.000000000000000000e+02
4.030000000000000000e+02 1.000000000000000000e+02
4.040000000000000000e+02 1.000000000000000000e+02
5.040000000000000000e+02 1.000000000000000000e+02
5.050000000000000000e+02 1.000000000000000000e+02
5.060000000000000000e+02 1.000000000000000000e+02
5.070000000000000000e+02 1.000000000000000000e+02
5.080000000000000000e+02 1.000000000000000000e+02
5.090000000000000000e+02 1.000000000000000000e+02
5.100000000000000000e+02 1.000000000000000000e+02
6.120000000000000000e+02 1.000000000000000000e+02
6.130000000000000000e+02 1.000000000000000000e+02
6.140000000000000000e+02 1.000000000000000000e+02
6.150000000000000000e+02 1.000000000000000000e+02
6.160000000000000000e+02 1.000000000000000000e+02
7.520000000000000000e+02 1.000000000000000000e+02
7.530000000000000000e+02 1.000000000000000000e+02
7.540000000000000000e+02 1.000000000000000000e+02
8.280000000000000000e+02 1.000000000000000000e+02
8.290000000000000000e+02 1.000000000000000000e+02
8.300000000000000000e+02 1.000000000000000000e+02
8.310000000000000000e+02 1.000000000000000000e+02
8.320000000000000000e+02 1.000000000000000000e+02
9.380000000000000000e+02 1.000000000000000000e+02
9.390000000000000000e+02 1.000000000000000000e+02
9.400000000000000000e+02 1.000000000000000000e+02
9.410000000000000000e+02 1.000000000000000000e+02
9.420000000000000000e+02 1.000000000000000000e+02
9.430000000000000000e+02 1.000000000000000000e+02
9.440000000000000000e+02 1.000000000000000000e+02
7.700000000000000000e+01 1.010000000000000000e+02
7.800000000000000000e+01 1.010000000000000000e+02
7.900000000000000000e+01 1.010000000000000000e+02
8.000000000000000000e+01 1.010000000000000000e+02
8.100000000000000000e+01 1.010000000000000000e+02
1.840000000000000000e+02 1.010000000000000000e+02
1.850000000000000000e+02 1.010000000000000000e+02
1.860000000000000000e+02 1.010000000000000000e+02
1.870000000000000000e+02 1.010000000000000000e+02
1.880000000000000000e+02 1.010000000000000000e+02
1.890000000000000000e+02 1.010000000000000000e+02
2.920000000000000000e+02 1.010000000000000000e+02
2.930000000000000000e+02 1.010000000000000000e+02
2.940000000000000000e+02 1.010000000000000000e+02
2.950000000000000000e+02 1.010000000000000000e+02
2.960000000000000000e+02 1.010000000000000000e+02
3.980000000000000000e+02 1.010000000000000000e+02
3.990000000000000000e+02 1.010000000000000000e+02
4.000000000000000000e+02 1.010000000000000000e+02
4.020000000000000000e+02 1.010000000000000000e+02
4.030000000000000000e+02 1.010000000000000000e+02
4.040000000000000000e+02 1.010000000000000000e+02
5.040000000000000000e+02 1.010000000000000000e+02
5.050000000000000000e+02 1.010000000000000000e+02
5.060000000000000000e+02 1.010000000000000000e+02
5.080000000000000000e+02 1.010000000000000000e+02
5.090000000000000000e+02 1.010000000000000000e+02
5.100000000000000000e+02 1.010000000000000000e+02
6.120000000000000000e+02 1.010000000000000000e+02
6.130000000000000000e+02 1.010000000000000000e+02
6.140000000000000000e+02 1.010000000000000000e+02
6.150000000000000000e+02 1.010000000000000000e+02
6.160000000000000000e+02 1.010000000000000000e+02
7.510000000000000000e+02 1.010000000000000000e+02
7.520000000000000000e+02 1.010000000000000000e+02
7.530000000000000000e+02 1.010000000000000000e+02
7.540000000000000000e+02 1.010000000000000000e+02
8.280000000000000000e+02 1.010000000000000000e+02
8.290000000000000000e+02 1.010000000000000000e+02
8.300000000000000000e+02 1.010000000000000000e+02
8.310000000000000000e+02 1.010000000000000000e+02
8.320000000000000000e+02 1.010000000000000000e+02
9.380000000000000000e+02 1.010000000000000000e+02
9.390000000000000000e+02 1.010000000000000000e+02
9.400000000000000000e+02 1.010000000000000000e+02
9.410000000000000000e+02 1.010000000000000000e+02
9.420000000000000000e+02 1.010000000000000000e+02
9.430000000000000000e+02 1.010000000000000000e+02
9.440000000000000000e+02 1.010000000000000000e+02
7.700000000000000000e+01 1.020000000000000000e+02
7.800000000000000000e+01 1.020000000000000000e+02
7.900000000000000000e+01 1.020000000000000000e+02
8.000000000000000000e+01 1.020000000000000000e+02
8.100000000000000000e+01 1.020000000000000000e+02
1.840000000000000000e+02 1.020000000000000000e+02
1.850000000000000000e+02 1.020000000000000000e+02
1.860000000000000000e+02 1.020000000000000000e+02
1.870000000000000000e+02 1.020000000000000000e+02
1.880000000000000000e+02 1.020000000000000000e+02
1.890000000000000000e+02 1.020000000000000000e+02
2.920000000000000000e+02 1.020000000000000000e+02
2.930000000000000000e+02 1.020000000000000000e+02
2.940000000000000000e+02 1.020000000000000000e+02
2.950000000000000000e+02 1.020000000000000000e+02
2.960000000000000000e+02 1.020000000000000000e+02
3.980000000000000000e+02 1.020000000000000000e+02
3.990000000000000000e+02 1.020000000000000000e+02
4.000000000000000000e+02 1.020000000000000000e+02
4.020000000000000000e+02 1.020000000000000000e+02
4.030000000000000000e+02 1.020000000000000000e+02
4.040000000000000000e+02 1.020000000000000000e+02
4.050000000000000000e+02 1.020000000000000000e+02
5.040000000000000000e+02 1.020000000000000000e+02
5.050000000000000000e+02 1.020000000000000000e+02
5.060000000000000000e+02 1.020000000000000000e+02
5.080000000000000000e+02 1.020000000000000000e+02
5.090000000000000000e+02 1.020000000000000000e+02
5.100000000000000000e+02 1.020000000000000000e+02
6.110000000000000000e+02 1.020000000000000000e+02
6.120000000000000000e+02 1.020000000000000000e+02
6.130000000000000000e+02 1.020000000000000000e+02
6.140000000000000000e+02 1.020000000000000000e+02
6.150000000000000000e+02 1.020000000000000000e+02
6.160000000000000000e+02 1.020000000000000000e+02
7.510000000000000000e+02 1.020000000000000000e+02
7.520000000000000000e+02 1.020000000000000000e+02
7.530000000000000000e+02 1.020000000000000000e+02
7.540000000000000000e+02 1.020000000000000000e+02
8.280000000000000000e+02 1.020000000000000000e+02
8.290000000000000000e+02 1.020000000000000000e+02
8.300000000000000000e+02 1.020000000000000000e+02
8.310000000000000000e+02 1.020000000000000000e+02
8.320000000000000000e+02 1.020000000000000000e+02
9.380000000000000000e+02 1.020000000000000000e+02
9.390000000000000000e+02 1.020000000000000000e+02
9.400000000000000000e+02 1.020000000000000000e+02
9.410000000000000000e+02 1.020000000000000000e+02
9.420000000000000000e+02 1.020000000000000000e+02
9.430000000000000000e+02 1.020000000000000000e+02
9.440000000000000000e+02 1.020000000000000000e+02
7.700000000000000000e+01 1.030000000000000000e+02
7.800000000000000000e+01 1.030000000000000000e+02
7.900000000000000000e+01 1.030000000000000000e+02
8.000000000000000000e+01 1.030000000000000000e+02
8.100000000000000000e+01 1.030000000000000000e+02
1.840000000000000000e+02 1.030000000000000000e+02
1.850000000000000000e+02 1.030000000000000000e+02
1.860000000000000000e+02 1.030000000000000000e+02
1.870000000000000000e+02 1.030000000000000000e+02
1.880000000000000000e+02 1.030000000000000000e+02
1.890000000000000000e+02 1.030000000000000000e+02
2.920000000000000000e+02 1.030000000000000000e+02
2.930000000000000000e+02 1.030000000000000000e+02
2.940000000000000000e+02 1.030000000000000000e+02
2.950000000000000000e+02 1.030000000000000000e+02
2.960000000000000000e+02 1.030000000000000000e+02
3.980000000000000000e+02 1.030000000000000000e+02
3.990000000000000000e+02 1.030000000000000000e+02
4.000000000000000000e+02 1.030000000000000000e+02
4.020000000000000000e+02 1.030000000000000000e+02
4.030000000000000000e+02 1.030000000000000000e+02
4.040000000000000000e+02 1.030000000000000000e+02
4.050000000000000000e+02 1.030000000000000000e+02
5.040000000000000000e+02 1.030000000000000000e+02
5.050000000000000000e+02 1.030000000000000000e+02
5.060000000000000000e+02 1.030000000000000000e+02
5.080000000000000000e+02 1.030000000000000000e+02
5.090000000000000000e+02 1.030000000000000000e+02
5.100000000000000000e+02 1.030000000000000000e+02
6.110000000000000000e+02 1.030000000000000000e+02
6.120000000000000000e+02 1.030000000000000000e+02
6.130000000000000000e+02 1.030000000000000000e+02
6.140000000000000000e+02 1.030000000000000000e+02
6.150000000000000000e+02 1.030000000000000000e+02
6.160000000000000000e+02 1.030000000000000000e+02
7.500000000000000000e+02 1.030000000000000000e+02
7.510000000000000000e+02 1.030000000000000000e+02
7.520000000000000000e+02 1.030000000000000000e+02
7.530000000000000000e+02 1.030000000000000000e+02
7.540000000000000000e+02 1.030000000000000000e+02
8.280000000000000000e+02 1.030000000000000000e+02
8.290000000000000000e+02 1.030000000000000000e+02
8.300000000000000000e+02 1.030000000000000000e+02
8.310000000000000000e+02 1.030000000000000000e+02
8.320000000000000000e+02 1.030000000000000000e+02
9.380000000000000000e+02 1.030000000000000000e+02
9.390000000000000000e+02 1.030000000000000000e+02
9.400000000000000000e+02 1.030000000000000000e+02
9.410000000000000000e+02 1.030000000000000000e+02
9.420000000000000000e+02 1.030000000000000000e+02
9.430000000000000000e+02 1.030000000000000000e+02
9.440000000000000000e+02 1.030000000000000000e+02
7.600000000000000000e+01 1.040000000000000000e+02
7.700000000000000000e+01 1.040000000000000000e+02
7.800000000000000000e+01 1.040000000000000000e+02
7.900000000000000000e+01 1.040000000000000000e+02
8.000000000000000000e+01 1.040000000000000000e+02
8.100000000000000000e+01 1.040000000000000000e+02
1.840000000000000000e+02 1.040000000000000000e+02
1.850000000000000000e+02 1.040000000000000000e+02
1.860000000000000000e+02 1.040000000000000000e+02
1.870000000000000000e+02 1.040000000000000000e+02
1.880000000000000000e+02 1.040000000000000000e+02
1.890000000000000000e+02 1.040000000000000000e+02
2.920000000000000000e+02 1.040000000000000000e+02
2.930000000000000000e+02 1.040000000000000000e+02
2.940000000000000000e+02 1.040000000000000000e+02
2.950000000000000000e+02 1.040000000000000000e+02
2.960000000000000000e+02 1.040000000000000000e+02
3.980000000000000000e+02 1.040000000000000000e+02
3.990000000000000000e+02 1.040000000000000000e+02
4.000000000000000000e+02 1.040000000000000000e+02
4.020000000000000000e+02 1.040000000000000000e+02
4.030000000000000000e+02 1.040000000000000000e+02
4.040000000000000000e+02 1.040000000000000000e+02
4.050000000000000000e+02 1.040000000000000000e+02
5.040000000000000000e+02 1.040000000000000000e+02
5.050000000000000000e+02 1.040000000000000000e+02
5.060000000000000000e+02 1.040000000000000000e+02
5.080000000000000000e+02 1.040000000000000000e+02
5.090000000000000000e+02 1.040000000000000000e+02
5.100000000000000000e+02 1.040000000000000000e+02
6.110000000000000000e+02 1.040000000000000000e+02
6.120000000000000000e+02 1.040000000000000000e+02
6.130000000000000000e+02 1.040000000000000000e+02
6.140000000000000000e+02 1.040000000000000000e+02
6.150000000000000000e+02 1.040000000000000000e+02
6.160000000000000000e+02 1.040000000000000000e+02
7.490000000000000000e+02 1.040000000000000000e+02
7.500000000000000000e+02 1.040000000000000000e+02
7.510000000000000000e+02 1.040000000000000000e+02
7.520000000000000000e+02 1.040000000000000000e+02
7.530000000000000000e+02 1.040000000000000000e+02
7.540000000000000000e+02 1.040000000000000000e+02
8.280000000000000000e+02 1.040000000000000000e+02
8.290000000000000000e+02 1.040000000000000000e+02
8.300000000000000000e+02 1.040000000000000000e+02
8.310000000000000000e+02 1.040000000000000000e+02
8.320000000000000000e+02 1.040000000000000000e+02
8.330000000000000000e+02 1.040000000000000000e+02
9.380000000000000000e+02 1.040000000000000000e+02
9.390000000000000000e+02 1.040000000000000000e+02
9.400000000000000000e+02 1.040000000000000000e+02
9.410000000000000000e+02 1.040000000000000000e+02
9.420000000000000000e+02 1.040000000000000000e+02
9.430000000000000000e+02 1.040000000000000000e+02
9.440000000000000000e+02 1.040000000000000000e+02
7.600000000000000000e+01 1.050000000000000000e+02
7.700000000000000000e+01 1.050000000000000000e+02
7.800000000000000000e+01 1.050000000000000000e+02
7.900000000000000000e+01 1.050000000000000000e+02
8.000000000000000000e+01 1.050000000000000000e+02
8.100000000000000000e+01 1.050000000000000000e+02
1.840000000000000000e+02 1.050000000000000000e+02
1.850000000000000000e+02 1.050000000000000000e+02
1.860000000000000000e+02 1.050000000000000000e+02
1.870000000000000000e+02 1.050000000000000000e+02
1.880000000000000000e+02 1.050000000000000000e+02
1.890000000000000000e+02 1.050000000000000000e+02
2.910000000000000000e+02 1.050000000000000000e+02
2.920000000000000000e+02 1.050000000000000000e+02
2.930000000000000000e+02 1.050000000000000000e+02
2.940000000000000000e+02 1.050000000000000000e+02
2.950000000000000000e+02 1.050000000000000000e+02
2.960000000000000000e+02 1.050000000000000000e+02
3.980000000000000000e+02 1.050000000000000000e+02
3.990000000000000000e+02 1.050000000000000000e+02
4.000000000000000000e+02 1.050000000000000000e+02
4.020000000000000000e+02 1.050000000000000000e+02
4.030000000000000000e+02 1.050000000000000000e+02
4.040000000000000000e+02 1.050000000000000000e+02
4.050000000000000000e+02 1.050000000000000000e+02
5.040000000000000000e+02 1.050000000000000000e+02
5.050000000000000000e+02 1.050000000000000000e+02
5.060000000000000000e+02 1.050000000000000000e+02
5.080000000000000000e+02 1.050000000000000000e+02
5.090000000000000000e+02 1.050000000000000000e+02
5.100000000000000000e+02 1.050000000000000000e+02
6.110000000000000000e+02 1.050000000000000000e+02
6.120000000000000000e+02 1.050000000000000000e+02
6.130000000000000000e+02 1.050000000000000000e+02
6.140000000000000000e+02 1.050000000000000000e+02
6.150000000000000000e+02 1.050000000000000000e+02
6.160000000000000000e+02 1.050000000000000000e+02
6.170000000000000000e+02 1.050000000000000000e+02
7.490000000000000000e+02 1.050000000000000000e+02
7.500000000000000000e+02 1.050000000000000000e+02
7.510000000000000000e+02 1.050000000000000000e+02
7.520000000000000000e+02 1.050000000000000000e+02
7.530000000000000000e+02 1.050000000000000000e+02
7.540000000000000000e+02 1.050000000000000000e+02
8.280000000000000000e+02 1.050000000000000000e+02
8.290000000000000000e+02 1.050000000000000000e+02
8.300000000000000000e+02 1.050000000000000000e+02
8.310000000000000000e+02 1.050000000000000000e+02
8.320000000000000000e+02 1.050000000000000000e+02
8.330000000000000000e+02 1.050000000000000000e+02
9.380000000000000000e+02 1.050000000000000000e+02
9.390000000000000000e+02 1.050000000000000000e+02
9.400000000000000000e+02 1.050000000000000000e+02
9.420000000000000000e+02 1.050000000000000000e+02
9.430000000000000000e+02 1.050000000000000000e+02
9.440000000000000000e+02 1.050000000000000000e+02
7.600000000000000000e+01 1.060000000000000000e+02
7.700000000000000000e+01 1.060000000000000000e+02
7.800000000000000000e+01 1.060000000000000000e+02
7.900000000000000000e+01 1.060000000000000000e+02
8.000000000000000000e+01 1.060000000000000000e+02
8.100000000000000000e+01 1.060000000000000000e+02
1.840000000000000000e+02 1.060000000000000000e+02
1.850000000000000000e+02 1.060000000000000000e+02
1.860000000000000000e+02 1.060000000000000000e+02
1.870000000000000000e+02 1.060000000000000000e+02
1.880000000000000000e+02 1.060000000000000000e+02
1.890000000000000000e+02 1.060000000000000000e+02
2.910000000000000000e+02 1.060000000000000000e+02
2.920000000000000000e+02 1.060000000000000000e+02
2.930000000000000000e+02 1.060000000000000000e+02
2.940000000000000000e+02 1.060000000000000000e+02
2.950000000000000000e+02 1.060000000000000000e+02
2.960000000000000000e+02 1.060000000000000000e+02
3.980000000000000000e+02 1.060000000000000000e+02
3.990000000000000000e+02 1.060000000000000000e+02
4.000000000000000000e+02 1.060000000000000000e+02
4.030000000000000000e+02 1.060000000000000000e+02
4.040000000000000000e+02 1.060000000000000000e+02
4.050000000000000000e+02 1.060000000000000000e+02
5.040000000000000000e+02 1.060000000000000000e+02
5.050000000000000000e+02 1.060000000000000000e+02
5.060000000000000000e+02 1.060000000000000000e+02
5.080000000000000000e+02 1.060000000000000000e+02
5.090000000000000000e+02 1.060000000000000000e+02
5.100000000000000000e+02 1.060000000000000000e+02
6.110000000000000000e+02 1.060000000000000000e+02
6.120000000000000000e+02 1.060000000000000000e+02
6.130000000000000000e+02 1.060000000000000000e+02
6.140000000000000000e+02 1.060000000000000000e+02
6.150000000000000000e+02 1.060000000000000000e+02
6.160000000000000000e+02 1.060000000000000000e+02
6.170000000000000000e+02 1.060000000000000000e+02
7.490000000000000000e+02 1.060000000000000000e+02
7.500000000000000000e+02 1.060000000000000000e+02
7.510000000000000000e+02 1.060000000000000000e+02
7.520000000000000000e+02 1.060000000000000000e+02
7.530000000000000000e+02 1.060000000000000000e+02
7.540000000000000000e+02 1.060000000000000000e+02
8.280000000000000000e+02 1.060000000000000000e+02
8.290000000000000000e+02 1.060000000000000000e+02
8.300000000000000000e+02 1.060000000000000000e+02
8.310000000000000000e+02 1.060000000000000000e+02
8.320000000000000000e+02 1.060000000000000000e+02
8.330000000000000000e+02 1.060000000000000000e+02
9.380000000000000000e+02 1.060000000000000000e+02
9.390000000000000000e+02 1.060000000000000000e+02
9.400000000000000000e+02 1.060000000000000000e+02
9.420000000000000000e+02 1.060000000000000000e+02
9.430000000000000000e+02 1.060000000000000000e+02
9.440000000000000000e+02 1.060000000000000000e+02
7.600000000000000000e+01 1.070000000000000000e+02
7.700000000000000000e+01 1.070000000000000000e+02
7.800000000000000000e+01 1.070000000000000000e+02
7.900000000000000000e+01 1.070000000000000000e+02
8.000000000000000000e+01 1.070000000000000000e+02
8.100000000000000000e+01 1.070000000000000000e+02
1.840000000000000000e+02 1.070000000000000000e+02
1.850000000000000000e+02 1.070000000000000000e+02
1.860000000000000000e+02 1.070000000000000000e+02
1.870000000000000000e+02 1.070000000000000000e+02
1.880000000000000000e+02 1.070000000000000000e+02
1.890000000000000000e+02 1.070000000000000000e+02
2.910000000000000000e+02 1.070000000000000000e+02
2.920000000000000000e+02 1.070000000000000000e+02
2.930000000000000000e+02 1.070000000000000000e+02
2.940000000000000000e+02 1.070000000000000000e+02
2.950000000000000000e+02 1.070000000000000000e+02
2.960000000000000000e+02 1.070000000000000000e+02
3.980000000000000000e+02 1.070000000000000000e+02
3.990000000000000000e+02 1.070000000000000000e+02
4.000000000000000000e+02 1.070000000000000000e+02
4.030000000000000000e+02 1.070000000000000000e+02
4.040000000000000000e+02 1.070000000000000000e+02
4.050000000000000000e+02 1.070000000000000000e+02
5.040000000000000000e+02 1.070000000000000000e+02
5.050000000000000000e+02 1.070000000000000000e+02
5.060000000000000000e+02 1.070000000000000000e+02
5.080000000000000000e+02 1.070000000000000000e+02
5.090000000000000000e+02 1.070000000000000000e+02
5.100000000000000000e+02 1.070000000000000000e+02
6.110000000000000000e+02 1.070000000000000000e+02
6.120000000000000000e+02 1.070000000000000000e+02
6.130000000000000000e+02 1.070000000000000000e+02
6.140000000000000000e+02 1.070000000000000000e+02
6.150000000000000000e+02 1.070000000000000000e+02
6.160000000000000000e+02 1.070000000000000000e+02
6.170000000000000000e+02 1.070000000000000000e+02
7.490000000000000000e+02 1.070000000000000000e+02
7.500000000000000000e+02 1.070000000000000000e+02
7.510000000000000000e+02 1.070000000000000000e+02
7.520000000000000000e+02 1.070000000000000000e+02
7.530000000000000000e+02 1.070000000000000000e+02
7.540000000000000000e+02 1.070000000000000000e+02
7.550000000000000000e+02 1.070000000000000000e+02
8.280000000000000000e+02 1.070000000000000000e+02
8.290000000000000000e+02 1.070000000000000000e+02
8.300000000000000000e+02 1.070000000000000000e+02
8.310000000000000000e+02 1.070000000000000000e+02
8.320000000000000000e+02 1.070000000000000000e+02
8.330000000000000000e+02 1.070000000000000000e+02
9.380000000000000000e+02 1.070000000000000000e+02
9.390000000000000000e+02 1.070000000000000000e+02
9.400000000000000000e+02 1.070000000000000000e+02
9.420000000000000000e+02 1.070000000000000000e+02
9.430000000000000000e+02 1.070000000000000000e+02
9.440000000000000000e+02 1.070000000000000000e+02
7.600000000000000000e+01 1.080000000000000000e+02
7.700000000000000000e+01 1.080000000000000000e+02
7.800000000000000000e+01 1.080000000000000000e+02
7.900000000000000000e+01 1.080000000000000000e+02
8.000000000000000000e+01 1.080000000000000000e+02
8.100000000000000000e+01 1.080000000000000000e+02
1.840000000000000000e+02 1.080000000000000000e+02
1.850000000000000000e+02 1.080000000000000000e+02
1.860000000000000000e+02 1.080000000000000000e+02
1.870000000000000000e+02 1.080000000000000000e+02
1.880000000000000000e+02 1.080000000000000000e+02
1.890000000000000000e+02 1.080000000000000000e+02
2.910000000000000000e+02 1.080000000000000000e+02
2.920000000000000000e+02 1.080000000000000000e+02
2.930000000000000000e+02 1.080000000000000000e+02
2.940000000000000000e+02 1.080000000000000000e+02
2.950000000000000000e+02 1.080000000000000000e+02
2.960000000000000000e+02 1.080000000000000000e+02
3.970000000000000000e+02 1.080000000000000000e+02
3.980000000000000000e+02 1.080000000000000000e+02
3.990000000000000000e+02 1.080000000000000000e+02
4.000000000000000000e+02 1.080000000000000000e+02
4.030000000000000000e+02 1.080000000000000000e+02
4.040000000000000000e+02 1.080000000000000000e+02
4.050000000000000000e+02 1.080000000000000000e+02
5.040000000000000000e+02 1.080000000000000000e+02
5.050000000000000000e+02 1.080000000000000000e+02
5.060000000000000000e+02 1.080000000000000000e+02
5.080000000000000000e+02 1.080000000000000000e+02
5.090000000000000000e+02 1.080000000000000000e+02
5.100000000000000000e+02 1.080000000000000000e+02
5.110000000000000000e+02 1.080000000000000000e+02
6.110000000000000000e+02 1.080000000000000000e+02
6.120000000000000000e+02 1.080000000000000000e+02
6.130000000000000000e+02 1.080000000000000000e+02
6.140000000000000000e+02 1.080000000000000000e+02
6.150000000000000000e+02 1.080000000000000000e+02
6.160000000000000000e+02 1.080000000000000000e+02
6.170000000000000000e+02 1.080000000000000000e+02
7.490000000000000000e+02 1.080000000000000000e+02
7.500000000000000000e+02 1.080000000000000000e+02
7.510000000000000000e+02 1.080000000000000000e+02
7.520000000000000000e+02 1.080000000000000000e+02
7.530000000000000000e+02 1.080000000000000000e+02
7.540000000000000000e+02 1.080000000000000000e+02
7.550000000000000000e+02 1.080000000000000000e+02
7.560000000000000000e+02 1.080000000000000000e+02
8.280000000000000000e+02 1.080000000000000000e+02
8.290000000000000000e+02 1.080000000000000000e+02
8.300000000000000000e+02 1.080000000000000000e+02
8.310000000000000000e+02 1.080000000000000000e+02
8.320000000000000000e+02 1.080000000000000000e+02
8.330000000000000000e+02 1.080000000000000000e+02
9.380000000000000000e+02 1.080000000000000000e+02
9.390000000000000000e+02 1.080000000000000000e+02
9.400000000000000000e+02 1.080000000000000000e+02
9.420000000000000000e+02 1.080000000000000000e+02
9.430000000000000000e+02 1.080000000000000000e+02
9.440000000000000000e+02 1.080000000000000000e+02
7.600000000000000000e+01 1.090000000000000000e+02
7.700000000000000000e+01 1.090000000000000000e+02
7.800000000000000000e+01 1.090000000000000000e+02
7.900000000000000000e+01 1.090000000000000000e+02
8.000000000000000000e+01 1.090000000000000000e+02
8.100000000000000000e+01 1.090000000000000000e+02
1.840000000000000000e+02 1.090000000000000000e+02
1.850000000000000000e+02 1.090000000000000000e+02
1.860000000000000000e+02 1.090000000000000000e+02
1.870000000000000000e+02 1.090000000000000000e+02
1.880000000000000000e+02 1.090000000000000000e+02
1.890000000000000000e+02 1.090000000000000000e+02
2.910000000000000000e+02 1.090000000000000000e+02
2.920000000000000000e+02 1.090000000000000000e+02
2.930000000000000000e+02 1.090000000000000000e+02
2.940000000000000000e+02 1.090000000000000000e+02
2.950000000000000000e+02 1.090000000000000000e+02
2.960000000000000000e+02 1.090000000000000000e+02
3.970000000000000000e+02 1.090000000000000000e+02
3.980000000000000000e+02 1.090000000000000000e+02
3.990000000000000000e+02 1.090000000000000000e+02
4.000000000000000000e+02 1.090000000000000000e+02
4.030000000000000000e+02 1.090000000000000000e+02
4.040000000000000000e+02 1.090000000000000000e+02
4.050000000000000000e+02 1.090000000000000000e+02
5.040000000000000000e+02 1.090000000000000000e+02
5.050000000000000000e+02 1.090000000000000000e+02
5.060000000000000000e+02 1.090000000000000000e+02
5.080000000000000000e+02 1.090000000000000000e+02
5.090000000000000000e+02 1.090000000000000000e+02
5.100000000000000000e+02 1.090000000000000000e+02
5.110000000000000000e+02 1.090000000000000000e+02
6.110000000000000000e+02 1.090000000000000000e+02
6.120000000000000000e+02 1.090000000000000000e+02
6.130000000000000000e+02 1.090000000000000000e+02
6.140000000000000000e+02 1.090000000000000000e+02
6.150000000000000000e+02 1.090000000000000000e+02
6.160000000000000000e+02 1.090000000000000000e+02
6.170000000000000000e+02 1.090000000000000000e+02
7.490000000000000000e+02 1.090000000000000000e+02
7.500000000000000000e+02 1.090000000000000000e+02
7.510000000000000000e+02 1.090000000000000000e+02
7.530000000000000000e+02 1.090000000000000000e+02
7.540000000000000000e+02 1.090000000000000000e+02
7.550000000000000000e+02 1.090000000000000000e+02
7.560000000000000000e+02 1.090000000000000000e+02
7.570000000000000000e+02 1.090000000000000000e+02
8.280000000000000000e+02 1.090000000000000000e+02
8.290000000000000000e+02 1.090000000000000000e+02
8.300000000000000000e+02 1.090000000000000000e+02
8.310000000000000000e+02 1.090000000000000000e+02
8.320000000000000000e+02 1.090000000000000000e+02
8.330000000000000000e+02 1.090000000000000000e+02
9.380000000000000000e+02 1.090000000000000000e+02
9.390000000000000000e+02 1.090000000000000000e+02
9.400000000000000000e+02 1.090000000000000000e+02
9.420000000000000000e+02 1.090000000000000000e+02
9.430000000000000000e+02 1.090000000000000000e+02
9.440000000000000000e+02 1.090000000000000000e+02
7.600000000000000000e+01 1.100000000000000000e+02
7.700000000000000000e+01 1.100000000000000000e+02
7.800000000000000000e+01 1.100000000000000000e+02
7.900000000000000000e+01 1.100000000000000000e+02
8.000000000000000000e+01 1.100000000000000000e+02
8.100000000000000000e+01 1.100000000000000000e+02
1.840000000000000000e+02 1.100000000000000000e+02
1.850000000000000000e+02 1.100000000000000000e+02
1.860000000000000000e+02 1.100000000000000000e+02
1.870000000000000000e+02 1.100000000000000000e+02
1.880000000000000000e+02 1.100000000000000000e+02
1.890000000000000000e+02 1.100000000000000000e+02
2.910000000000000000e+02 1.100000000000000000e+02
2.920000000000000000e+02 1.100000000000000000e+02
2.930000000000000000e+02 1.100000000000000000e+02
2.940000000000000000e+02 1.100000000000000000e+02
2.950000000000000000e+02 1.100000000000000000e+02
2.960000000000000000e+02 1.100000000000000000e+02
3.970000000000000000e+02 1.100000000000000000e+02
3.980000000000000000e+02 1.100000000000000000e+02
3.990000000000000000e+02 1.100000000000000000e+02
4.000000000000000000e+02 1.100000000000000000e+02
4.030000000000000000e+02 1.100000000000000000e+02
4.040000000000000000e+02 1.100000000000000000e+02
4.050000000000000000e+02 1.100000000000000000e+02
5.040000000000000000e+02 1.100000000000000000e+02
5.050000000000000000e+02 1.100000000000000000e+02
5.060000000000000000e+02 1.100000000000000000e+02
5.080000000000000000e+02 1.100000000000000000e+02
5.090000000000000000e+02 1.100000000000000000e+02
5.100000000000000000e+02 1.100000000000000000e+02
5.110000000000000000e+02 1.100000000000000000e+02
6.110000000000000000e+02 1.100000000000000000e+02
6.120000000000000000e+02 1.100000000000000000e+02
6.130000000000000000e+02 1.100000000000000000e+02
6.140000000000000000e+02 1.100000000000000000e+02
6.150000000000000000e+02 1.100000000000000000e+02
6.160000000000000000e+02 1.100000000000000000e+02
6.170000000000000000e+02 1.100000000000000000e+02
7.450000000000000000e+02 1.100000000000000000e+02
7.460000000000000000e+02 1.100000000000000000e+02
7.480000000000000000e+02 1.100000000000000000e+02
7.490000000000000000e+02 1.100000000000000000e+02
7.500000000000000000e+02 1.100000000000000000e+02
7.510000000000000000e+02 1.100000000000000000e+02
7.530000000000000000e+02 1.100000000000000000e+02
7.540000000000000000e+02 1.100000000000000000e+02
7.550000000000000000e+02 1.100000000000000000e+02
7.560000000000000000e+02 1.100000000000000000e+02
7.570000000000000000e+02 1.100000000000000000e+02
8.280000000000000000e+02 1.100000000000000000e+02
8.290000000000000000e+02 1.100000000000000000e+02
8.300000000000000000e+02 1.100000000000000000e+02
8.310000000000000000e+02 1.100000000000000000e+02
8.320000000000000000e+02 1.100000000000000000e+02
8.330000000000000000e+02 1.100000000000000000e+02
9.380000000000000000e+02 1.100000000000000000e+02
9.390000000000000000e+02 1.100000000000000000e+02
9.400000000000000000e+02 1.100000000000000000e+02
9.420000000000000000e+02 1.100000000000000000e+02
9.430000000000000000e+02 1.100000000000000000e+02
9.440000000000000000e+02 1.100000000000000000e+02
7.600000000000000000e+01 1.110000000000000000e+02
7.700000000000000000e+01 1.110000000000000000e+02
7.800000000000000000e+01 1.110000000000000000e+02
7.900000000000000000e+01 1.110000000000000000e+02
8.000000000000000000e+01 1.110000000000000000e+02
8.100000000000000000e+01 1.110000000000000000e+02
1.840000000000000000e+02 1.110000000000000000e+02
1.850000000000000000e+02 1.110000000000000000e+02
1.860000000000000000e+02 1.110000000000000000e+02
1.870000000000000000e+02 1.110000000000000000e+02
1.880000000000000000e+02 1.110000000000000000e+02
1.890000000000000000e+02 1.110000000000000000e+02
2.910000000000000000e+02 1.110000000000000000e+02
2.920000000000000000e+02 1.110000000000000000e+02
2.930000000000000000e+02 1.110000000000000000e+02
2.940000000000000000e+02 1.110000000000000000e+02
2.950000000000000000e+02 1.110000000000000000e+02
2.960000000000000000e+02 1.110000000000000000e+02
3.970000000000000000e+02 1.110000000000000000e+02
3.980000000000000000e+02 1.110000000000000000e+02
3.990000000000000000e+02 1.110000000000000000e+02
4.000000000000000000e+02 1.110000000000000000e+02
4.030000000000000000e+02 1.110000000000000000e+02
4.040000000000000000e+02 1.110000000000000000e+02
4.050000000000000000e+02 1.110000000000000000e+02
5.040000000000000000e+02 1.110000000000000000e+02
5.050000000000000000e+02 1.110000000000000000e+02
5.060000000000000000e+02 1.110000000000000000e+02
5.080000000000000000e+02 1.110000000000000000e+02
5.090000000000000000e+02 1.110000000000000000e+02
5.100000000000000000e+02 1.110000000000000000e+02
5.110000000000000000e+02 1.110000000000000000e+02
6.110000000000000000e+02 1.110000000000000000e+02
6.120000000000000000e+02 1.110000000000000000e+02
6.130000000000000000e+02 1.110000000000000000e+02
6.140000000000000000e+02 1.110000000000000000e+02
6.150000000000000000e+02 1.110000000000000000e+02
6.160000000000000000e+02 1.110000000000000000e+02
6.170000000000000000e+02 1.110000000000000000e+02
7.440000000000000000e+02 1.110000000000000000e+02
7.450000000000000000e+02 1.110000000000000000e+02
7.460000000000000000e+02 1.110000000000000000e+02
7.470000000000000000e+02 1.110000000000000000e+02
7.480000000000000000e+02 1.110000000000000000e+02
7.490000000000000000e+02 1.110000000000000000e+02
7.500000000000000000e+02 1.110000000000000000e+02
7.510000000000000000e+02 1.110000000000000000e+02
7.530000000000000000e+02 1.110000000000000000e+02
7.540000000000000000e+02 1.110000000000000000e+02
7.550000000000000000e+02 1.110000000000000000e+02
7.560000000000000000e+02 1.110000000000000000e+02
7.570000000000000000e+02 1.110000000000000000e+02
8.280000000000000000e+02 1.110000000000000000e+02
8.290000000000000000e+02 1.110000000000000000e+02
8.300000000000000000e+02 1.110000000000000000e+02
8.310000000000000000e+02 1.110000000000000000e+02
8.320000000000000000e+02 1.110000000000000000e+02
8.330000000000000000e+02 1.110000000000000000e+02
9.380000000000000000e+02 1.110000000000000000e+02
9.390000000000000000e+02 1.110000000000000000e+02
9.400000000000000000e+02 1.110000000000000000e+02
9.420000000000000000e+02 1.110000000000000000e+02
9.430000000000000000e+02 1.110000000000000000e+02
9.440000000000000000e+02 1.110000000000000000e+02
7.600000000000000000e+01 1.120000000000000000e+02
7.700000000000000000e+01 1.120000000000000000e+02
7.800000000000000000e+01 1.120000000000000000e+02
7.900000000000000000e+01 1.120000000000000000e+02
8.000000000000000000e+01 1.120000000000000000e+02
8.100000000000000000e+01 1.120000000000000000e+02
1.840000000000000000e+02 1.120000000000000000e+02
1.850000000000000000e+02 1.120000000000000000e+02
1.860000000000000000e+02 1.120000000000000000e+02
1.870000000000000000e+02 1.120000000000000000e+02
1.880000000000000000e+02 1.120000000000000000e+02
1.890000000000000000e+02 1.120000000000000000e+02
2.910000000000000000e+02 1.120000000000000000e+02
2.920000000000000000e+02 1.120000000000000000e+02
2.930000000000000000e+02 1.120000000000000000e+02
2.940000000000000000e+02 1.120000000000000000e+02
2.950000000000000000e+02 1.120000000000000000e+02
2.960000000000000000e+02 1.120000000000000000e+02
3.970000000000000000e+02 1.120000000000000000e+02
3.980000000000000000e+02 1.120000000000000000e+02
3.990000000000000000e+02 1.120000000000000000e+02
4.000000000000000000e+02 1.120000000000000000e+02
4.030000000000000000e+02 1.120000000000000000e+02
4.040000000000000000e+02 1.120000000000000000e+02
4.050000000000000000e+02 1.120000000000000000e+02
5.030000000000000000e+02 1.120000000000000000e+02
5.040000000000000000e+02 1.120000000000000000e+02
5.050000000000000000e+02 1.120000000000000000e+02
5.060000000000000000e+02 1.120000000000000000e+02
5.080000000000000000e+02 1.120000000000000000e+02
5.090000000000000000e+02 1.120000000000000000e+02
5.100000000000000000e+02 1.120000000000000000e+02
5.110000000000000000e+02 1.120000000000000000e+02
6.110000000000000000e+02 1.120000000000000000e+02
6.120000000000000000e+02 1.120000000000000000e+02
6.130000000000000000e+02 1.120000000000000000e+02
6.140000000000000000e+02 1.120000000000000000e+02
6.150000000000000000e+02 1.120000000000000000e+02
6.160000000000000000e+02 1.120000000000000000e+02
6.170000000000000000e+02 1.120000000000000000e+02
7.440000000000000000e+02 1.120000000000000000e+02
7.450000000000000000e+02 1.120000000000000000e+02
7.460000000000000000e+02 1.120000000000000000e+02
7.470000000000000000e+02 1.120000000000000000e+02
7.480000000000000000e+02 1.120000000000000000e+02
7.490000000000000000e+02 1.120000000000000000e+02
7.500000000000000000e+02 1.120000000000000000e+02
7.510000000000000000e+02 1.120000000000000000e+02
7.530000000000000000e+02 1.120000000000000000e+02
7.540000000000000000e+02 1.120000000000000000e+02
7.550000000000000000e+02 1.120000000000000000e+02
7.560000000000000000e+02 1.120000000000000000e+02
7.570000000000000000e+02 1.120000000000000000e+02
8.280000000000000000e+02 1.120000000000000000e+02
8.290000000000000000e+02 1.120000000000000000e+02
8.300000000000000000e+02 1.120000000000000000e+02
8.310000000000000000e+02 1.120000000000000000e+02
8.320000000000000000e+02 1.120000000000000000e+02
8.330000000000000000e+02 1.120000000000000000e+02
9.380000000000000000e+02 1.120000000000000000e+02
9.390000000000000000e+02 1.120000000000000000e+02
9.400000000000000000e+02 1.120000000000000000e+02
9.420000000000000000e+02 1.120000000000000000e+02
9.430000000000000000e+02 1.120000000000000000e+02
9.440000000000000000e+02 1.120000000000000000e+02
7.600000000000000000e+01 1.130000000000000000e+02
7.700000000000000000e+01 1.130000000000000000e+02
7.800000000000000000e+01 1.130000000000000000e+02
7.900000000000000000e+01 1.130000000000000000e+02
8.000000000000000000e+01 1.130000000000000000e+02
8.100000000000000000e+01 1.130000000000000000e+02
1.840000000000000000e+02 1.130000000000000000e+02
1.850000000000000000e+02 1.130000000000000000e+02
1.860000000000000000e+02 1.130000000000000000e+02
1.870000000000000000e+02 1.130000000000000000e+02
1.880000000000000000e+02 1.130000000000000000e+02
1.890000000000000000e+02 1.130000000000000000e+02
2.910000000000000000e+02 1.130000000000000000e+02
2.920000000000000000e+02 1.130000000000000000e+02
2.930000000000000000e+02 1.130000000000000000e+02
2.940000000000000000e+02 1.130000000000000000e+02
2.950000000000000000e+02 1.130000000000000000e+02
2.960000000000000000e+02 1.130000000000000000e+02
3.970000000000000000e+02 1.130000000000000000e+02
3.980000000000000000e+02 1.130000000000000000e+02
3.990000000000000000e+02 1.130000000000000000e+02
4.000000000000000000e+02 1.130000000000000000e+02
4.030000000000000000e+02 1.130000000000000000e+02
4.040000000000000000e+02 1.130000000000000000e+02
4.050000000000000000e+02 1.130000000000000000e+02
5.030000000000000000e+02 1.130000000000000000e+02
5.040000000000000000e+02 1.130000000000000000e+02
5.050000000000000000e+02 1.130000000000000000e+02
5.060000000000000000e+02 1.130000000000000000e+02
5.090000000000000000e+02 1.130000000000000000e+02
5.100000000000000000e+02 1.130000000000000000e+02
5.110000000000000000e+02 1.130000000000000000e+02
6.110000000000000000e+02 1.130000000000000000e+02
6.120000000000000000e+02 1.130000000000000000e+02
6.130000000000000000e+02 1.130000000000000000e+02
6.140000000000000000e+02 1.130000000000000000e+02
6.150000000000000000e+02 1.130000000000000000e+02
6.160000000000000000e+02 1.130000000000000000e+02
6.170000000000000000e+02 1.130000000000000000e+02
7.440000000000000000e+02 1.130000000000000000e+02
7.450000000000000000e+02 1.130000000000000000e+02
7.460000000000000000e+02 1.130000000000000000e+02
7.470000000000000000e+02 1.130000000000000000e+02
7.480000000000000000e+02 1.130000000000000000e+02
7.490000000000000000e+02 1.130000000000000000e+02
7.500000000000000000e+02 1.130000000000000000e+02
7.550000000000000000e+02 1.130000000000000000e+02
7.560000000000000000e+02 1.130000000000000000e+02
7.570000000000000000e+02 1.130000000000000000e+02
7.580000000000000000e+02 1.130000000000000000e+02
8.280000000000000000e+02 1.130000000000000000e+02
8.290000000000000000e+02 1.130000000000000000e+02
8.300000000000000000e+02 1.130000000000000000e+02
8.310000000000000000e+02 1.130000000000000000e+02
8.320000000000000000e+02 1.130000000000000000e+02
8.330000000000000000e+02 1.130000000000000000e+02
9.380000000000000000e+02 1.130000000000000000e+02
9.390000000000000000e+02 1.130000000000000000e+02
9.400000000000000000e+02 1.130000000000000000e+02
9.420000000000000000e+02 1.130000000000000000e+02
9.430000000000000000e+02 1.130000000000000000e+02
9.440000000000000000e+02 1.130000000000000000e+02
7.600000000000000000e+01 1.140000000000000000e+02
7.700000000000000000e+01 1.140000000000000000e+02
7.800000000000000000e+01 1.140000000000000000e+02
7.900000000000000000e+01 1.140000000000000000e+02
8.000000000000000000e+01 1.140000000000000000e+02
8.100000000000000000e+01 1.140000000000000000e+02
1.840000000000000000e+02 1.140000000000000000e+02
1.850000000000000000e+02 1.140000000000000000e+02
1.860000000000000000e+02 1.140000000000000000e+02
1.870000000000000000e+02 1.140000000000000000e+02
1.880000000000000000e+02 1.140000000000000000e+02
1.890000000000000000e+02 1.140000000000000000e+02
2.910000000000000000e+02 1.140000000000000000e+02
2.920000000000000000e+02 1.140000000000000000e+02
2.930000000000000000e+02 1.140000000000000000e+02
2.940000000000000000e+02 1.140000000000000000e+02
2.950000000000000000e+02 1.140000000000000000e+02
2.960000000000000000e+02 1.140000000000000000e+02
2.970000000000000000e+02 1.140000000000000000e+02
3.970000000000000000e+02 1.140000000000000000e+02
3.980000000000000000e+02 1.140000000000000000e+02
3.990000000000000000e+02 1.140000000000000000e+02
4.030000000000000000e+02 1.140000000000000000e+02
4.040000000000000000e+02 1.140000000000000000e+02
4.050000000000000000e+02 1.140000000000000000e+02
5.030000000000000000e+02 1.140000000000000000e+02
5.040000000000000000e+02 1.140000000000000000e+02
5.050000000000000000e+02 1.140000000000000000e+02
5.060000000000000000e+02 1.140000000000000000e+02
5.090000000000000000e+02 1.140000000000000000e+02
5.100000000000000000e+02 1.140000000000000000e+02
5.110000000000000000e+02 1.140000000000000000e+02
6.110000000000000000e+02 1.140000000000000000e+02
6.120000000000000000e+02 1.140000000000000000e+02
6.130000000000000000e+02 1.140000000000000000e+02
6.140000000000000000e+02 1.140000000000000000e+02
6.150000000000000000e+02 1.140000000000000000e+02
6.160000000000000000e+02 1.140000000000000000e+02
6.170000000000000000e+02 1.140000000000000000e+02
7.430000000000000000e+02 1.140000000000000000e+02
7.440000000000000000e+02 1.140000000000000000e+02
7.450000000000000000e+02 1.140000000000000000e+02
7.460000000000000000e+02 1.140000000000000000e+02
7.470000000000000000e+02 1.140000000000000000e+02
7.480000000000000000e+02 1.140000000000000000e+02
7.490000000000000000e+02 1.140000000000000000e+02
7.500000000000000000e+02 1.140000000000000000e+02
7.550000000000000000e+02 1.140000000000000000e+02
7.560000000000000000e+02 1.140000000000000000e+02
7.570000000000000000e+02 1.140000000000000000e+02
7.580000000000000000e+02 1.140000000000000000e+02
8.280000000000000000e+02 1.140000000000000000e+02
8.290000000000000000e+02 1.140000000000000000e+02
8.300000000000000000e+02 1.140000000000000000e+02
8.310000000000000000e+02 1.140000000000000000e+02
8.320000000000000000e+02 1.140000000000000000e+02
8.330000000000000000e+02 1.140000000000000000e+02
9.370000000000000000e+02 1.140000000000000000e+02
9.380000000000000000e+02 1.140000000000000000e+02
9.390000000000000000e+02 1.140000000000000000e+02
9.400000000000000000e+02 1.140000000000000000e+02
9.420000000000000000e+02 1.140000000000000000e+02
9.430000000000000000e+02 1.140000000000000000e+02
9.440000000000000000e+02 1.140000000000000000e+02
