6.350000000000000000e+02 3.600000000000000000e+01
6.360000000000000000e+02 3.600000000000000000e+01
6.350000000000000000e+02 3.700000000000000000e+01
6.360000000000000000e+02 3.700000000000000000e+01
6.370000000000000000e+02 3.700000000000000000e+01
6.350000000000000000e+02 3.800000000000000000e+01
6.360000000000000000e+02 3.800000000000000000e+01
6.370000000000000000e+02 3.800000000000000000e+01
6.340000000000000000e+02 3.900000000000000000e+01
6.350000000000000000e+02 3.900000000000000000e+01
6.360000000000000000e+02 3.900000000000000000e+01
6.370000000000000000e+02 3.900000000000000000e+01
2.220000000000000000e+02 4.000000000000000000e+01
4.310000000000000000e+02 4.000000000000000000e+01
4.320000000000000000e+02 4.000000000000000000e+01
4.330000000000000000e+02 4.000000000000000000e+01
6.340000000000000000e+02 4.000000000000000000e+01
6.350000000000000000e+02 4.000000000000000000e+01
6.360000000000000000e+02 4.000000000000000000e+01
6.370000000000000000e+02 4.000000000000000000e+01
2.210000000000000000e+02 4.100000000000000000e+01
2.220000000000000000e+02 4.100000000000000000e+01
2.230000000000000000e+02 4.100000000000000000e+01
4.310000000000000000e+02 4.100000000000000000e+01
4.320000000000000000e+02 4.100000000000000000e+01
4.330000000000000000e+02 4.100000000000000000e+01
6.340000000000000000e+02 4.100000000000000000e+01
6.350000000000000000e+02 4.100000000000000000e+01
6.360000000000000000e+02 4.100000000000000000e+01
6.370000000000000000e+02 4.100000000000000000e+01
2.210000000000000000e+02 4.200000000000000000e+01
2.220000000000000000e+02 4.200000000000000000e+01
2.230000000000000000e+02 4.200000000000000000e+01
4.310000000000000000e+02 4.200000000000000000e+01
4.320000000000000000e+02 4.200000000000000000e+01
4.330000000000000000e+02 4.200000000000000000e+01
6.340000000000000000e+02 4.200000000000000000e+01
6.350000000000000000e+02 4.200000000000000000e+01
6.360000000000000000e+02 4.200000000000000000e+01
6.370000000000000000e+02 4.200000000000000000e+01
2.210000000000000000e+02 4.300000000000000000e+01
2.220000000000000000e+02 4.300000000000000000e+01
2.230000000000000000e+02 4.300000000000000000e+01
4.310000000000000000e+02 4.300000000000000000e+01
4.320000000000000000e+02 4.300000000000000000e+01
4.330000000000000000e+02 4.300000000000000000e+01
6.340000000000000000e+02 4.300000000000000000e+01
6.350000000000000000e+02 4.300000000000000000e+01
6.360000000000000000e+02 4.300000000000000000e+01
6.370000000000000000e+02 4.300000000000000000e+01
2.210000000000000000e+02 4.400000000000000000e+01
2.220000000000000000e+02 4.400000000000000000e+01
2.230000000000000000e+02 4.400000000000000000e+01
4.310000000000000000e+02 4.400000000000000000e+01
4.320000000000000000e+02 4.400000000000000000e+01
4.330000000000000000e+02 4.400000000000000000e+01
6.340000000000000000e+02 4.400000000000000000e+01
6.350000000000000000e+02 4.400000000000000000e+01
6.360000000000000000e+02 4.400000000000000000e+01
6.370000000000000000e+02 4.400000000000000000e+01
2.200000000000000000e+02 4.500000000000000000e+01
2.210000000000000000e+02 4.500000000000000000e+01
2.220000000000000000e+02 4.500000000000000000e+01
2.230000000000000000e+02 4.500000000000000000e+01
4.310000000000000000e+02 4.500000000000000000e+01
4.320000000000000000e+02 4.500000000000000000e+01
4.330000000000000000e+02 4.500000000000000000e+01
6.340000000000000000e+02 4.500000000000000000e+01
6.350000000000000000e+02 4.500000000000000000e+01
6.360000000000000000e+02 4.500000000000000000e+01
6.370000000000000000e+02 4.500000000000000000e+01
2.200000000000000000e+02 4.600000000000000000e+01
2.210000000000000000e+02 4.600000000000000000e+01
2.220000000000000000e+02 4.600000000000000000e+01
2.230000000000000000e+02 4.600000000000000000e+01
4.300000000000000000e+02 4.600000000000000000e+01
4.310000000000000000e+02 4.600000000000000000e+01
4.320000000000000000e+02 4.600000000000000000e+01
4.330000000000000000e+02 4.600000000000000000e+01
6.340000000000000000e+02 4.600000000000000000e+01
6.350000000000000000e+02 4.600000000000000000e+01
6.360000000000000000e+02 4.600000000000000000e+01
6.370000000000000000e+02 4.600000000000000000e+01
8.410000000000000000e+02 4.600000000000000000e+01
8.420000000000000000e+02 4.600000000000000000e+01
8.430000000000000000e+02 4.600000000000000000e+01
2.200000000000000000e+02 4.700000000000000000e+01
2.210000000000000000e+02 4.700000000000000000e+01
2.220000000000000000e+02 4.700000000000000000e+01
2.230000000000000000e+02 4.700000000000000000e+01
4.300000000000000000e+02 4.700000000000000000e+01
4.310000000000000000e+02 4.700000000000000000e+01
4.320000000000000000e+02 4.700000000000000000e+01
4.330000000000000000e+02 4.700000000000000000e+01
6.340000000000000000e+02 4.700000000000000000e+01
6.350000000000000000e+02 4.700000000000000000e+01
6.360000000000000000e+02 4.700000000000000000e+01
6.370000000000000000e+02 4.700000000000000000e+01
6.380000000000000000e+02 4.700000000000000000e+01
8.410000000000000000e+02 4.700000000000000000e+01
8.420000000000000000e+02 4.700000000000000000e+01
8.430000000000000000e+02 4.700000000000000000e+01
2.200000000000000000e+02 4.800000000000000000e+01
2.210000000000000000e+02 4.800000000000000000e+01
2.220000000000000000e+02 4.800000000000000000e+01
2.230000000000000000e+02 4.800000000000000000e+01
4.300000000000000000e+02 4.800000000000000000e+01
4.310000000000000000e+02 4.800000000000000000e+01
4.320000000000000000e+02 4.800000000000000000e+01
4.330000000000000000e+02 4.800000000000000000e+01
4.340000000000000000e+02 4.800000000000000000e+01
6.340000000000000000e+02 4.800000000000000000e+01
6.350000000000000000e+02 4.800000000000000000e+01
6.360000000000000000e+02 4.800000000000000000e+01
6.370000000000000000e+02 4.800000000000000000e+01
6.380000000000000000e+02 4.800000000000000000e+01
8.410000000000000000e+02 4.800000000000000000e+01
8.420000000000000000e+02 4.800000000000000000e+01
8.430000000000000000e+02 4.800000000000000000e+01
8.440000000000000000e+02 4.800000000000000000e+01
2.200000000000000000e+02 4.900000000000000000e+01
2.210000000000000000e+02 4.900000000000000000e+01
2.220000000000000000e+02 4.900000000000000000e+01
2.230000000000000000e+02 4.900000000000000000e+01
2.240000000000000000e+02 4.900000000000000000e+01
4.300000000000000000e+02 4.900000000000000000e+01
4.310000000000000000e+02 4.900000000000000000e+01
4.320000000000000000e+02 4.900000000000000000e+01
4.330000000000000000e+02 4.900000000000000000e+01
4.340000000000000000e+02 4.900000000000000000e+01
6.340000000000000000e+02 4.900000000000000000e+01
6.350000000000000000e+02 4.900000000000000000e+01
6.360000000000000000e+02 4.900000000000000000e+01
6.370000000000000000e+02 4.900000000000000000e+01
6.380000000000000000e+02 4.900000000000000000e+01
8.410000000000000000e+02 4.900000000000000000e+01
8.420000000000000000e+02 4.900000000000000000e+01
8.430000000000000000e+02 4.900000000000000000e+01
8.440000000000000000e+02 4.900000000000000000e+01
2.200000000000000000e+02 5.000000000000000000e+01
2.210000000000000000e+02 5.000000000000000000e+01
2.220000000000000000e+02 5.000000000000000000e+01
2.230000000000000000e+02 5.000000000000000000e+01
2.240000000000000000e+02 5.000000000000000000e+01
4.300000000000000000e+02 5.000000000000000000e+01
4.310000000000000000e+02 5.000000000000000000e+01
4.320000000000000000e+02 5.000000000000000000e+01
4.330000000000000000e+02 5.000000000000000000e+01
4.340000000000000000e+02 5.000000000000000000e+01
6.340000000000000000e+02 5.000000000000000000e+01
6.350000000000000000e+02 5.000000000000000000e+01
6.360000000000000000e+02 5.000000000000000000e+01
6.370000000000000000e+02 5.000000000000000000e+01
6.380000000000000000e+02 5.000000000000000000e+01
8.410000000000000000e+02 5.000000000000000000e+01
8.420000000000000000e+02 5.000000000000000000e+01
8.430000000000000000e+02 5.000000000000000000e+01
8.440000000000000000e+02 5.000000000000000000e+01
2.200000000000000000e+02 5.100000000000000000e+01
2.210000000000000000e+02 5.100000000000000000e+01
2.220000000000000000e+02 5.100000000000000000e+01
2.230000000000000000e+02 5.100000000000000000e+01
2.240000000000000000e+02 5.100000000000000000e+01
4.300000000000000000e+02 5.100000000000000000e+01
4.310000000000000000e+02 5.100000000000000000e+01
4.320000000000000000e+02 5.100000000000000000e+01
4.330000000000000000e+02 5.100000000000000000e+01
4.340000000000000000e+02 5.100000000000000000e+01
6.340000000000000000e+02 5.100000000000000000e+01
6.350000000000000000e+02 5.100000000000000000e+01
6.360000000000000000e+02 5.100000000000000000e+01
6.370000000000000000e+02 5.100000000000000000e+01
6.380000000000000000e+02 5.100000000000000000e+01
6.390000000000000000e+02 5.100000000000000000e+01
8.410000000000000000e+02 5.100000000000000000e+01
8.420000000000000000e+02 5.100000000000000000e+01
8.430000000000000000e+02 5.100000000000000000e+01
8.440000000000000000e+02 5.100000000000000000e+01
2.200000000000000000e+02 5.200000000000000000e+01
2.210000000000000000e+02 5.200000000000000000e+01
2.220000000000000000e+02 5.200000000000000000e+01
2.230000000000000000e+02 5.200000000000000000e+01
2.240000000000000000e+02 5.200000000000000000e+01
4.300000000000000000e+02 5.200000000000000000e+01
4.310000000000000000e+02 5.200000000000000000e+01
4.320000000000000000e+02 5.200000000000000000e+01
4.330000000000000000e+02 5.200000000000000000e+01
4.340000000000000000e+02 5.200000000000000000e+01
6.340000000000000000e+02 5.200000000000000000e+01
6.350000000000000000e+02 5.200000000000000000e+01
6.360000000000000000e+02 5.200000000000000000e+01
6.370000000000000000e+02 5.200000000000000000e+01
6.380000000000000000e+02 5.200000000000000000e+01
6.390000000000000000e+02 5.200000000000000000e+01
6.400000000000000000e+02 5.200000000000000000e+01
8.410000000000000000e+02 5.200000000000000000e+01
8.420000000000000000e+02 5.200000000000000000e+01
8.430000000000000000e+02 5.200000000000000000e+01
8.440000000000000000e+02 5.200000000000000000e+01
2.200000000000000000e+02 5.300000000000000000e+01
2.210000000000000000e+02 5.300000000000000000e+01
2.220000000000000000e+02 5.300000000000000000e+01
2.230000000000000000e+02 5.300000000000000000e+01
2.240000000000000000e+02 5.300000000000000000e+01
4.300000000000000000e+02 5.300000000000000000e+01
4.310000000000000000e+02 5.300000000000000000e+01
4.320000000000000000e+02 5.300000000000000000e+01
4.330000000000000000e+02 5.300000000000000000e+01
4.340000000000000000e+02 5.300000000000000000e+01
4.350000000000000000e+02 5.300000000000000000e+01
4.360000000000000000e+02 5.300000000000000000e+01
6.340000000000000000e+02 5.300000000000000000e+01
6.350000000000000000e+02 5.300000000000000000e+01
6.360000000000000000e+02 5.300000000000000000e+01
6.370000000000000000e+02 5.300000000000000000e+01
6.380000000000000000e+02 5.300000000000000000e+01
6.390000000000000000e+02 5.300000000000000000e+01
6.400000000000000000e+02 5.300000000000000000e+01
8.410000000000000000e+02 5.300000000000000000e+01
8.420000000000000000e+02 5.300000000000000000e+01
8.430000000000000000e+02 5.300000000000000000e+01
8.440000000000000000e+02 5.300000000000000000e+01
2.200000000000000000e+02 5.400000000000000000e+01
2.210000000000000000e+02 5.400000000000000000e+01
2.220000000000000000e+02 5.400000000000000000e+01
2.230000000000000000e+02 5.400000000000000000e+01
2.240000000000000000e+02 5.400000000000000000e+01
4.300000000000000000e+02 5.400000000000000000e+01
4.310000000000000000e+02 5.400000000000000000e+01
4.320000000000000000e+02 5.400000000000000000e+01
4.330000000000000000e+02 5.400000000000000000e+01
4.340000000000000000e+02 5.400000000000000000e+01
4.350000000000000000e+02 5.400000000000000000e+01
4.360000000000000000e+02 5.400000000000000000e+01
6.340000000000000000e+02 5.400000000000000000e+01
6.350000000000000000e+02 5.400000000000000000e+01
6.360000000000000000e+02 5.400000000000000000e+01
6.370000000000000000e+02 5.400000000000000000e+01
6.380000000000000000e+02 5.400000000000000000e+01
6.390000000000000000e+02 5.400000000000000000e+01
6.400000000000000000e+02 5.400000000000000000e+01
8.410000000000000000e+02 5.400000000000000000e+01
8.420000000000000000e+02 5.400000000000000000e+01
8.430000000000000000e+02 5.400000000000000000e+01
8.440000000000000000e+02 5.400000000000000000e+01
2.200000000000000000e+02 5.500000000000000000e+01
2.210000000000000000e+02 5.500000000000000000e+01
2.220000000000000000e+02 5.500000000000000000e+01
2.230000000000000000e+02 5.500000000000000000e+01
2.240000000000000000e+02 5.500000000000000000e+01
4.300000000000000000e+02 5.500000000000000000e+01
4.310000000000000000e+02 5.500000000000000000e+01
4.320000000000000000e+02 5.500000000000000000e+01
4.330000000000000000e+02 5.500000000000000000e+01
4.340000000000000000e+02 5.500000000000000000e+01
4.350000000000000000e+02 5.500000000000000000e+01
4.360000000000000000e+02 5.500000000000000000e+01
6.340000000000000000e+02 5.500000000000000000e+01
6.350000000000000000e+02 5.500000000000000000e+01
6.360000000000000000e+02 5.500000000000000000e+01
6.370000000000000000e+02 5.500000000000000000e+01
6.380000000000000000e+02 5.500000000000000000e+01
6.390000000000000000e+02 5.500000000000000000e+01
6.400000000000000000e+02 5.500000000000000000e+01
8.410000000000000000e+02 5.500000000000000000e+01
8.420000000000000000e+02 5.500000000000000000e+01
8.430000000000000000e+02 5.500000000000000000e+01
8.440000000000000000e+02 5.500000000000000000e+01
8.450000000000000000e+02 5.500000000000000000e+01
8.460000000000000000e+02 5.500000000000000000e+01
2.200000000000000000e+02 5.600000000000000000e+01
2.210000000000000000e+02 5.600000000000000000e+01
2.220000000000000000e+02 5.600000000000000000e+01
2.230000000000000000e+02 5.600000000000000000e+01
2.240000000000000000e+02 5.600000000000000000e+01
2.250000000000000000e+02 5.600000000000000000e+01
4.300000000000000000e+02 5.600000000000000000e+01
4.310000000000000000e+02 5.600000000000000000e+01
4.320000000000000000e+02 5.600000000000000000e+01
4.330000000000000000e+02 5.600000000000000000e+01
4.340000000000000000e+02 5.600000000000000000e+01
4.350000000000000000e+02 5.600000000000000000e+01
4.360000000000000000e+02 5.600000000000000000e+01
6.340000000000000000e+02 5.600000000000000000e+01
6.350000000000000000e+02 5.600000000000000000e+01
6.360000000000000000e+02 5.600000000000000000e+01
6.370000000000000000e+02 5.600000000000000000e+01
6.380000000000000000e+02 5.600000000000000000e+01
6.390000000000000000e+02 5.600000000000000000e+01
6.400000000000000000e+02 5.600000000000000000e+01
8.400000000000000000e+02 5.600000000000000000e+01
8.410000000000000000e+02 5.600000000000000000e+01
8.420000000000000000e+02 5.600000000000000000e+01
8.430000000000000000e+02 5.600000000000000000e+01
8.440000000000000000e+02 5.600000000000000000e+01
8.450000000000000000e+02 5.600000000000000000e+01
8.460000000000000000e+02 5.600000000000000000e+01
2.200000000000000000e+02 5.700000000000000000e+01
2.210000000000000000e+02 5.700000000000000000e+01
2.220000000000000000e+02 5.700000000000000000e+01
2.230000000000000000e+02 5.700000000000000000e+01
2.240000000000000000e+02 5.700000000000000000e+01
2.250000000000000000e+02 5.700000000000000000e+01
2.260000000000000000e+02 5.700000000000000000e+01
4.300000000000000000e+02 5.700000000000000000e+01
4.310000000000000000e+02 5.700000000000000000e+01
4.320000000000000000e+02 5.700000000000000000e+01
4.330000000000000000e+02 5.700000000000000000e+01
4.340000000000000000e+02 5.700000000000000000e+01
4.350000000000000000e+02 5.700000000000000000e+01
4.360000000000000000e+02 5.700000000000000000e+01
6.340000000000000000e+02 5.700000000000000000e+01
6.350000000000000000e+02 5.700000000000000000e+01
6.360000000000000000e+02 5.700000000000000000e+01
6.370000000000000000e+02 5.700000000000000000e+01
6.380000000000000000e+02 5.700000000000000000e+01
6.390000000000000000e+02 5.700000000000000000e+01
6.400000000000000000e+02 5.700000000000000000e+01
8.400000000000000000e+02 5.700000000000000000e+01
8.410000000000000000e+02 5.700000000000000000e+01
8.420000000000000000e+02 5.700000000000000000e+01
8.430000000000000000e+02 5.700000000000000000e+01
8.440000000000000000e+02 5.700000000000000000e+01
8.450000000000000000e+02 5.700000000000000000e+01
8.460000000000000000e+02 5.700000000000000000e+01
2.200000000000000000e+02 5.800000000000000000e+01
2.210000000000000000e+02 5.800000000000000000e+01
2.220000000000000000e+02 5.800000000000000000e+01
2.230000000000000000e+02 5.800000000000000000e+01
2.240000000000000000e+02 5.800000000000000000e+01
2.250000000000000000e+02 5.800000000000000000e+01
2.260000000000000000e+02 5.800000000000000000e+01
4.300000000000000000e+02 5.800000000000000000e+01
4.310000000000000000e+02 5.800000000000000000e+01
4.320000000000000000e+02 5.800000000000000000e+01
4.330000000000000000e+02 5.800000000000000000e+01
4.340000000000000000e+02 5.800000000000000000e+01
4.350000000000000000e+02 5.800000000000000000e+01
4.360000000000000000e+02 5.800000000000000000e+01
4.370000000000000000e+02 5.800000000000000000e+01
6.340000000000000000e+02 5.800000000000000000e+01
6.350000000000000000e+02 5.800000000000000000e+01
6.360000000000000000e+02 5.800000000000000000e+01
6.370000000000000000e+02 5.800000000000000000e+01
6.380000000000000000e+02 5.800000000000000000e+01
6.390000000000000000e+02 5.800000000000000000e+01
6.400000000000000000e+02 5.800000000000000000e+01
8.400000000000000000e+02 5.800000000000000000e+01
8.410000000000000000e+02 5.800000000000000000e+01
8.420000000000000000e+02 5.800000000000000000e+01
8.430000000000000000e+02 5.800000000000000000e+01
8.440000000000000000e+02 5.800000000000000000e+01
8.450000000000000000e+02 5.800000000000000000e+01
8.460000000000000000e+02 5.800000000000000000e+01
8.470000000000000000e+02 5.800000000000000000e+01
2.200000000000000000e+02 5.900000000000000000e+01
2.210000000000000000e+02 5.900000000000000000e+01
2.220000000000000000e+02 5.900000000000000000e+01
2.230000000000000000e+02 5.900000000000000000e+01
2.240000000000000000e+02 5.900000000000000000e+01
2.250000000000000000e+02 5.900000000000000000e+01
2.260000000000000000e+02 5.900000000000000000e+01
4.300000000000000000e+02 5.900000000000000000e+01
4.310000000000000000e+02 5.900000000000000000e+01
4.320000000000000000e+02 5.900000000000000000e+01
4.330000000000000000e+02 5.900000000000000000e+01
4.340000000000000000e+02 5.900000000000000000e+01
4.350000000000000000e+02 5.900000000000000000e+01
4.360000000000000000e+02 5.900000000000000000e+01
4.370000000000000000e+02 5.900000000000000000e+01
6.340000000000000000e+02 5.900000000000000000e+01
6.350000000000000000e+02 5.900000000000000000e+01
6.360000000000000000e+02 5.900000000000000000e+01
6.370000000000000000e+02 5.900000000000000000e+01
6.380000000000000000e+02 5.900000000000000000e+01
6.390000000000000000e+02 5.900000000000000000e+01
6.400000000000000000e+02 5.900000000000000000e+01
8.400000000000000000e+02 5.900000000000000000e+01
8.410000000000000000e+02 5.900000000000000000e+01
8.420000000000000000e+02 5.900000000000000000e+01
8.430000000000000000e+02 5.900000000000000000e+01
8.440000000000000000e+02 5.900000000000000000e+01
8.450000000000000000e+02 5.900000000000000000e+01
8.460000000000000000e+02 5.900000000000000000e+01
8.470000000000000000e+02 5.900000000000000000e+01
2.200000000000000000e+02 6.000000000000000000e+01
2.210000000000000000e+02 6.000000000000000000e+01
2.220000000000000000e+02 6.000000000000000000e+01
2.230000000000000000e+02 6.000000000000000000e+01
2.240000000000000000e+02 6.000000000000000000e+01
2.250000000000000000e+02 6.000000000000000000e+01
2.260000000000000000e+02 6.000000000000000000e+01
4.300000000000000000e+02 6.000000000000000000e+01
4.310000000000000000e+02 6.000000000000000000e+01
4.320000000000000000e+02 6.000000000000000000e+01
4.330000000000000000e+02 6.000000000000000000e+01
4.340000000000000000e+02 6.000000000000000000e+01
4.350000000000000000e+02 6.000000000000000000e+01
4.360000000000000000e+02 6.000000000000000000e+01
4.370000000000000000e+02 6.000000000000000000e+01
6.340000000000000000e+02 6.000000000000000000e+01
6.350000000000000000e+02 6.000000000000000000e+01
6.360000000000000000e+02 6.000000000000000000e+01
6.370000000000000000e+02 6.000000000000000000e+01
6.380000000000000000e+02 6.000000000000000000e+01
6.390000000000000000e+02 6.000000000000000000e+01
6.400000000000000000e+02 6.000000000000000000e+01
8.400000000000000000e+02 6.000000000000000000e+01
8.410000000000000000e+02 6.000000000000000000e+01
8.420000000000000000e+02 6.000000000000000000e+01
8.430000000000000000e+02 6.000000000000000000e+01
8.440000000000000000e+02 6.000000000000000000e+01
8.450000000000000000e+02 6.000000000000000000e+01
8.460000000000000000e+02 6.000000000000000000e+01
8.470000000000000000e+02 6.000000000000000000e+01
2.200000000000000000e+02 6.100000000000000000e+01
2.210000000000000000e+02 6.100000000000000000e+01
2.220000000000000000e+02 6.100000000000000000e+01
2.230000000000000000e+02 6.100000000000000000e+01
2.240000000000000000e+02 6.100000000000000000e+01
2.250000000000000000e+02 6.100000000000000000e+01
2.260000000000000000e+02 6.100000000000000000e+01
4.300000000000000000e+02 6.100000000000000000e+01
4.310000000000000000e+02 6.100000000000000000e+01
4.320000000000000000e+02 6.100000000000000000e+01
4.330000000000000000e+02 6.100000000000000000e+01
4.340000000000000000e+02 6.100000000000000000e+01
4.350000000000000000e+02 6.100000000000000000e+01
4.360000000000000000e+02 6.100000000000000000e+01
4.370000000000000000e+02 6.100000000000000000e+01
6.340000000000000000e+02 6.100000000000000000e+01
6.350000000000000000e+02 6.100000000000000000e+01
6.360000000000000000e+02 6.100000000000000000e+01
6.380000000000000000e+02 6.100000000000000000e+01
6.390000000000000000e+02 6.100000000000000000e+01
6.400000000000000000e+02 6.100000000000000000e+01
8.400000000000000000e+02 6.100000000000000000e+01
8.410000000000000000e+02 6.100000000000000000e+01
8.420000000000000000e+02 6.100000000000000000e+01
8.430000000000000000e+02 6.100000000000000000e+01
8.440000000000000000e+02 6.100000000000000000e+01
8.450000000000000000e+02 6.100000000000000000e+01
8.460000000000000000e+02 6.100000000000000000e+01
8.470000000000000000e+02 6.100000000000000000e+01
2.200000000000000000e+02 6.200000000000000000e+01
2.210000000000000000e+02 6.200000000000000000e+01
2.220000000000000000e+02 6.200000000000000000e+01
2.240000000000000000e+02 6.200000000000000000e+01
2.250000000000000000e+02 6.200000000000000000e+01
2.260000000000000000e+02 6.200000000000000000e+01
4.300000000000000000e+02 6.200000000000000000e+01
4.310000000000000000e+02 6.200000000000000000e+01
4.320000000000000000e+02 6.200000000000000000e+01
4.330000000000000000e+02 6.200000000000000000e+01
4.340000000000000000e+02 6.200000000000000000e+01
4.350000000000000000e+02 6.200000000000000000e+01
4.360000000000000000e+02 6.200000000000000000e+01
4.370000000000000000e+02 6.200000000000000000e+01
6.340000000000000000e+02 6.200000000000000000e+01
6.350000000000000000e+02 6.200000000000000000e+01
6.360000000000000000e+02 6.200000000000000000e+01
6.380000000000000000e+02 6.200000000000000000e+01
6.390000000000000000e+02 6.200000000000000000e+01
6.400000000000000000e+02 6.200000000000000000e+01
8.400000000000000000e+02 6.200000000000000000e+01
8.410000000000000000e+02 6.200000000000000000e+01
8.420000000000000000e+02 6.200000000000000000e+01
8.430000000000000000e+02 6.200000000000000000e+01
8.450000000000000000e+02 6.200000000000000000e+01
8.460000000000000000e+02 6.200000000000000000e+01
8.470000000000000000e+02 6.200000000000000000e+01
2.200000000000000000e+02 6.300000000000000000e+01
2.210000000000000000e+02 6.300000000000000000e+01
2.220000000000000000e+02 6.300000000000000000e+01
2.240000000000000000e+02 6.300000000000000000e+01
2.250000000000000000e+02 6.300000000000000000e+01
2.260000000000000000e+02 6.300000000000000000e+01
2.270000000000000000e+02 6.300000000000000000e+01
4.300000000000000000e+02 6.300000000000000000e+01
4.310000000000000000e+02 6.300000000000000000e+01
4.320000000000000000e+02 6.300000000000000000e+01
4.350000000000000000e+02 6.300000000000000000e+01
4.360000000000000000e+02 6.300000000000000000e+01
4.370000000000000000e+02 6.300000000000000000e+01
6.340000000000000000e+02 6.300000000000000000e+01
6.350000000000000000e+02 6.300000000000000000e+01
6.360000000000000000e+02 6.300000000000000000e+01
6.380000000000000000e+02 6.300000000000000000e+01
6.390000000000000000e+02 6.300000000000000000e+01
6.400000000000000000e+02 6.300000000000000000e+01
6.410000000000000000e+02 6.300000000000000000e+01
8.400000000000000000e+02 6.300000000000000000e+01
8.410000000000000000e+02 6.300000000000000000e+01
8.420000000000000000e+02 6.300000000000000000e+01
8.430000000000000000e+02 6.300000000000000000e+01
8.450000000000000000e+02 6.300000000000000000e+01
8.460000000000000000e+02 6.300000000000000000e+01
8.470000000000000000e+02 6.300000000000000000e+01
2.200000000000000000e+02 6.400000000000000000e+01
2.210000000000000000e+02 6.400000000000000000e+01
2.220000000000000000e+02 6.400000000000000000e+01
2.240000000000000000e+02 6.400000000000000000e+01
2.250000000000000000e+02 6.400000000000000000e+01
2.260000000000000000e+02 6.400000000000000000e+01
2.270000000000000000e+02 6.400000000000000000e+01
4.300000000000000000e+02 6.400000000000000000e+01
4.310000000000000000e+02 6.400000000000000000e+01
4.320000000000000000e+02 6.400000000000000000e+01
4.350000000000000000e+02 6.400000000000000000e+01
4.360000000000000000e+02 6.400000000000000000e+01
4.370000000000000000e+02 6.400000000000000000e+01
6.340000000000000000e+02 6.400000000000000000e+01
6.350000000000000000e+02 6.400000000000000000e+01
6.360000000000000000e+02 6.400000000000000000e+01
6.380000000000000000e+02 6.400000000000000000e+01
6.390000000000000000e+02 6.400000000000000000e+01
6.400000000000000000e+02 6.400000000000000000e+01
6.410000000000000000e+02 6.400000000000000000e+01
8.400000000000000000e+02 6.400000000000000000e+01
8.410000000000000000e+02 6.400000000000000000e+01
8.420000000000000000e+02 6.400000000000000000e+01
8.430000000000000000e+02 6.400000000000000000e+01
8.450000000000000000e+02 6.400000000000000000e+01
8.460000000000000000e+02 6.400000000000000000e+01
8.470000000000000000e+02 6.400000000000000000e+01
2.200000000000000000e+02 6.500000000000000000e+01
2.210000000000000000e+02 6.500000000000000000e+01
2.220000000000000000e+02 6.500000000000000000e+01
2.240000000000000000e+02 6.500000000000000000e+01
2.250000000000000000e+02 6.500000000000000000e+01
2.260000000000000000e+02 6.500000000000000000e+01
2.270000000000000000e+02 6.500000000000000000e+01
4.300000000000000000e+02 6.500000000000000000e+01
4.310000000000000000e+02 6.500000000000000000e+01
4.320000000000000000e+02 6.500000000000000000e+01
4.350000000000000000e+02 6.500000000000000000e+01
4.360000000000000000e+02 6.500000000000000000e+01
4.370000000000000000e+02 6.500000000000000000e+01
6.340000000000000000e+02 6.500000000000000000e+01
6.350000000000000000e+02 6.500000000000000000e+01
6.360000000000000000e+02 6.500000000000000000e+01
6.380000000000000000e+02 6.500000000000000000e+01
6.390000000000000000e+02 6.500000000000000000e+01
6.400000000000000000e+02 6.500000000000000000e+01
6.410000000000000000e+02 6.500000000000000000e+01
8.400000000000000000e+02 6.500000000000000000e+01
8.410000000000000000e+02 6.500000000000000000e+01
8.420000000000000000e+02 6.500000000000000000e+01
8.430000000000000000e+02 6.500000000000000000e+01
8.450000000000000000e+02 6.500000000000000000e+01
8.460000000000000000e+02 6.500000000000000000e+01
8.470000000000000000e+02 6.500000000000000000e+01
2.200000000000000000e+02 6.600000000000000000e+01
2.210000000000000000e+02 6.600000000000000000e+01
2.220000000000000000e+02 6.600000000000000000e+01
2.250000000000000000e+02 6.600000000000000000e+01
2.260000000000000000e+02 6.600000000000000000e+01
2.270000000000000000e+02 6.600000000000000000e+01
4.300000000000000000e+02 6.600000000000000000e+01
4.310000000000000000e+02 6.600000000000000000e+01
4.320000000000000000e+02 6.600000000000000000e+01
4.350000000000000000e+02 6.600000000000000000e+01
4.360000000000000000e+02 6.600000000000000000e+01
4.370000000000000000e+02 6.600000000000000000e+01
6.340000000000000000e+02 6.600000000000000000e+01
6.350000000000000000e+02 6.600000000000000000e+01
6.360000000000000000e+02 6.600000000000000000e+01
6.380000000000000000e+02 6.600000000000000000e+01
6.390000000000000000e+02 6.600000000000000000e+01
6.400000000000000000e+02 6.600000000000000000e+01
6.410000000000000000e+02 6.600000000000000000e+01
8.400000000000000000e+02 6.600000000000000000e+01
8.410000000000000000e+02 6.600000000000000000e+01
8.420000000000000000e+02 6.600000000000000000e+01
8.430000000000000000e+02 6.600000000000000000e+01
8.450000000000000000e+02 6.600000000000000000e+01
8.460000000000000000e+02 6.600000000000000000e+01
8.470000000000000000e+02 6.600000000000000000e+01
2.200000000000000000e+02 6.700000000000000000e+01
2.210000000000000000e+02 6.700000000000000000e+01
2.220000000000000000e+02 6.700000000000000000e+01
2.250000000000000000e+02 6.700000000000000000e+01
2.260000000000000000e+02 6.700000000000000000e+01
2.270000000000000000e+02 6.700000000000000000e+01
4.300000000000000000e+02 6.700000000000000000e+01
4.310000000000000000e+02 6.700000000000000000e+01
4.320000000000000000e+02 6.700000000000000000e+01
4.350000000000000000e+02 6.700000000000000000e+01
4.360000000000000000e+02 6.700000000000000000e+01
4.370000000000000000e+02 6.700000000000000000e+01
6.330000000000000000e+02 6.700000000000000000e+01
6.340000000000000000e+02 6.700000000000000000e+01
6.350000000000000000e+02 6.700000000000000000e+01
6.360000000000000000e+02 6.700000000000000000e+01
6.390000000000000000e+02 6.700000000000000000e+01
6.400000000000000000e+02 6.700000000000000000e+01
6.410000000000000000e+02 6.700000000000000000e+01
8.400000000000000000e+02 6.700000000000000000e+01
8.410000000000000000e+02 6.700000000000000000e+01
8.420000000000000000e+02 6.700000000000000000e+01
8.430000000000000000e+02 6.700000000000000000e+01
8.450000000000000000e+02 6.700000000000000000e+01
8.460000000000000000e+02 6.700000000000000000e+01
8.470000000000000000e+02 6.700000000000000000e+01
2.200000000000000000e+02 6.800000000000000000e+01
2.210000000000000000e+02 6.800000000000000000e+01
2.220000000000000000e+02 6.800000000000000000e+01
2.250000000000000000e+02 6.800000000000000000e+01
2.260000000000000000e+02 6.800000000000000000e+01
2.270000000000000000e+02 6.800000000000000000e+01
4.300000000000000000e+02 6.800000000000000000e+01
4.310000000000000000e+02 6.800000000000000000e+01
4.320000000000000000e+02 6.800000000000000000e+01
4.350000000000000000e+02 6.800000000000000000e+01
4.360000000000000000e+02 6.800000000000000000e+01
4.370000000000000000e+02 6.800000000000000000e+01
6.330000000000000000e+02 6.800000000000000000e+01
6.340000000000000000e+02 6.800000000000000000e+01
6.350000000000000000e+02 6.800000000000000000e+01
6.360000000000000000e+02 6.800000000000000000e+01
6.390000000000000000e+02 6.800000000000000000e+01
6.400000000000000000e+02 6.800000000000000000e+01
6.410000000000000000e+02 6.800000000000000000e+01
8.400000000000000000e+02 6.800000000000000000e+01
8.410000000000000000e+02 6.800000000000000000e+01
8.420000000000000000e+02 6.800000000000000000e+01
8.430000000000000000e+02 6.800000000000000000e+01
8.450000000000000000e+02 6.800000000000000000e+01
8.460000000000000000e+02 6.800000000000000000e+01
8.470000000000000000e+02 6.800000000000000000e+01
2.200000000000000000e+02 6.900000000000000000e+01
2.210000000000000000e+02 6.900000000000000000e+01
2.220000000000000000e+02 6.900000000000000000e+01
2.250000000000000000e+02 6.900000000000000000e+01
2.260000000000000000e+02 6.900000000000000000e+01
2.270000000000000000e+02 6.900000000000000000e+01
4.300000000000000000e+02 6.900000000000000000e+01
4.310000000000000000e+02 6.900000000000000000e+01
4.320000000000000000e+02 6.900000000000000000e+01
4.350000000000000000e+02 6.900000000000000000e+01
4.360000000000000000e+02 6.900000000000000000e+01
4.370000000000000000e+02 6.900000000000000000e+01
6.330000000000000000e+02 6.900000000000000000e+01
6.340000000000000000e+02 6.900000000000000000e+01
6.350000000000000000e+02 6.900000000000000000e+01
6.360000000000000000e+02 6.900000000000000000e+01
6.390000000000000000e+02 6.900000000000000000e+01
6.400000000000000000e+02 6.900000000000000000e+01
6.410000000000000000e+02 6.900000000000000000e+01
8.400000000000000000e+02 6.900000000000000000e+01
8.410000000000000000e+02 6.900000000000000000e+01
8.420000000000000000e+02 6.900000000000000000e+01
8.450000000000000000e+02 6.900000000000000000e+01
8.460000000000000000e+02 6.900000000000000000e+01
8.470000000000000000e+02 6.900000000000000000e+01
8.480000000000000000e+02 6.900000000000000000e+01
2.200000000000000000e+02 7.000000000000000000e+01
2.210000000000000000e+02 7.000000000000000000e+01
2.220000000000000000e+02 7.000000000000000000e+01
2.250000000000000000e+02 7.000000000000000000e+01
2.260000000000000000e+02 7.000000000000000000e+01
2.270000000000000000e+02 7.000000000000000000e+01
4.300000000000000000e+02 7.000000000000000000e+01
4.310000000000000000e+02 7.000000000000000000e+01
4.320000000000000000e+02 7.000000000000000000e+01
4.350000000000000000e+02 7.000000000000000000e+01
4.360000000000000000e+02 7.000000000000000000e+01
4.370000000000000000e+02 7.000000000000000000e+01
6.330000000000000000e+02 7.000000000000000000e+01
6.340000000000000000e+02 7.000000000000000000e+01
6.350000000000000000e+02 7.000000000000000000e+01
6.360000000000000000e+02 7.000000000000000000e+01
6.390000000000000000e+02 7.000000000000000000e+01
6.400000000000000000e+02 7.000000000000000000e+01
6.410000000000000000e+02 7.000000000000000000e+01
8.400000000000000000e+02 7.000000000000000000e+01
8.410000000000000000e+02 7.000000000000000000e+01
8.420000000000000000e+02 7.000000000000000000e+01
8.450000000000000000e+02 7.000000000000000000e+01
8.460000000000000000e+02 7.000000000000000000e+01
8.470000000000000000e+02 7.000000000000000000e+01
8.480000000000000000e+02 7.000000000000000000e+01
2.200000000000000000e+02 7.100000000000000000e+01
2.210000000000000000e+02 7.100000000000000000e+01
2.220000000000000000e+02 7.100000000000000000e+01
2.250000000000000000e+02 7.100000000000000000e+01
2.260000000000000000e+02 7.100000000000000000e+01
2.270000000000000000e+02 7.100000000000000000e+01
4.300000000000000000e+02 7.100000000000000000e+01
4.310000000000000000e+02 7.100000000000000000e+01
4.320000000000000000e+02 7.100000000000000000e+01
4.350000000000000000e+02 7.100000000000000000e+01
4.360000000000000000e+02 7.100000000000000000e+01
4.370000000000000000e+02 7.100000000000000000e+01
6.330000000000000000e+02 7.100000000000000000e+01
6.340000000000000000e+02 7.100000000000000000e+01
6.350000000000000000e+02 7.100000000000000000e+01
6.360000000000000000e+02 7.100000000000000000e+01
6.390000000000000000e+02 7.100000000000000000e+01
6.400000000000000000e+02 7.100000000000000000e+01
6.410000000000000000e+02 7.100000000000000000e+01
8.400000000000000000e+02 7.100000000000000000e+01
8.410000000000000000e+02 7.100000000000000000e+01
8.420000000000000000e+02 7.100000000000000000e+01
8.460000000000000000e+02 7.100000000000000000e+01
8.470000000000000000e+02 7.100000000000000000e+01
8.480000000000000000e+02 7.100000000000000000e+01
2.200000000000000000e+02 7.200000000000000000e+01
2.210000000000000000e+02 7.200000000000000000e+01
2.220000000000000000e+02 7.200000000000000000e+01
2.250000000000000000e+02 7.200000000000000000e+01
2.260000000000000000e+02 7.200000000000000000e+01
2.270000000000000000e+02 7.200000000000000000e+01
4.300000000000000000e+02 7.200000000000000000e+01
4.310000000000000000e+02 7.200000000000000000e+01
4.320000000000000000e+02 7.200000000000000000e+01
4.350000000000000000e+02 7.200000000000000000e+01
4.360000000000000000e+02 7.200000000000000000e+01
4.370000000000000000e+02 7.200000000000000000e+01
4.380000000000000000e+02 7.200000000000000000e+01
6.330000000000000000e+02 7.200000000000000000e+01
6.340000000000000000e+02 7.200000000000000000e+01
6.350000000000000000e+02 7.200000000000000000e+01
6.360000000000000000e+02 7.200000000000000000e+01
6.390000000000000000e+02 7.200000000000000000e+01
6.400000000000000000e+02 7.200000000000000000e+01
6.410000000000000000e+02 7.200000000000000000e+01
8.400000000000000000e+02 7.200000000000000000e+01
8.410000000000000000e+02 7.200000000000000000e+01
8.420000000000000000e+02 7.200000000000000000e+01
8.460000000000000000e+02 7.200000000000000000e+01
8.470000000000000000e+02 7.200000000000000000e+01
8.480000000000000000e+02 7.200000000000000000e+01
2.200000000000000000e+02 7.300000000000000000e+01
2.210000000000000000e+02 7.300000000000000000e+01
2.220000000000000000e+02 7.300000000000000000e+01
2.250000000000000000e+02 7.300000000000000000e+01
2.260000000000000000e+02 7.300000000000000000e+01
2.270000000000000000e+02 7.300000000000000000e+01
4.300000000000000000e+02 7.300000000000000000e+01
4.310000000000000000e+02 7.300000000000000000e+01
4.320000000000000000e+02 7.300000000000000000e+01
4.350000000000000000e+02 7.300000000000000000e+01
4.360000000000000000e+02 7.300000000000000000e+01
4.370000000000000000e+02 7.300000000000000000e+01
4.380000000000000000e+02 7.300000000000000000e+01
6.330000000000000000e+02 7.300000000000000000e+01
6.340000000000000000e+02 7.300000000000000000e+01
6.350000000000000000e+02 7.300000000000000000e+01
6.360000000000000000e+02 7.300000000000000000e+01
6.390000000000000000e+02 7.300000000000000000e+01
6.400000000000000000e+02 7.300000000000000000e+01
6.410000000000000000e+02 7.300000000000000000e+01
8.400000000000000000e+02 7.300000000000000000e+01
8.410000000000000000e+02 7.300000000000000000e+01
8.420000000000000000e+02 7.300000000000000000e+01
8.460000000000000000e+02 7.300000000000000000e+01
8.470000000000000000e+02 7.300000000000000000e+01
8.480000000000000000e+02 7.300000000000000000e+01
2.200000000000000000e+02 7.400000000000000000e+01
2.210000000000000000e+02 7.400000000000000000e+01
2.220000000000000000e+02 7.400000000000000000e+01
2.250000000000000000e+02 7.400000000000000000e+01
2.260000000000000000e+02 7.400000000000000000e+01
2.270000000000000000e+02 7.400000000000000000e+01
4.300000000000000000e+02 7.400000000000000000e+01
4.310000000000000000e+02 7.400000000000000000e+01
4.320000000000000000e+02 7.400000000000000000e+01
4.350000000000000000e+02 7.400000000000000000e+01
4.360000000000000000e+02 7.400000000000000000e+01
4.370000000000000000e+02 7.400000000000000000e+01
4.380000000000000000e+02 7.400000000000000000e+01
6.330000000000000000e+02 7.400000000000000000e+01
6.340000000000000000e+02 7.400000000000000000e+01
6.350000000000000000e+02 7.400000000000000000e+01
6.360000000000000000e+02 7.400000000000000000e+01
6.390000000000000000e+02 7.400000000000000000e+01
6.400000000000000000e+02 7.400000000000000000e+01
6.410000000000000000e+02 7.400000000000000000e+01
8.400000000000000000e+02 7.400000000000000000e+01
8.410000000000000000e+02 7.400000000000000000e+01
8.420000000000000000e+02 7.400000000000000000e+01
8.460000000000000000e+02 7.400000000000000000e+01
8.470000000000000000e+02 7.400000000000000000e+01
8.480000000000000000e+02 7.400000000000000000e+01
2.200000000000000000e+02 7.500000000000000000e+01
2.210000000000000000e+02 7.500000000000000000e+01
2.220000000000000000e+02 7.500000000000000000e+01
2.250000000000000000e+02 7.500000000000000000e+01
2.260000000000000000e+02 7.500000000000000000e+01
2.270000000000000000e+02 7.500000000000000000e+01
4.300000000000000000e+02 7.500000000000000000e+01
4.310000000000000000e+02 7.500000000000000000e+01
4.320000000000000000e+02 7.500000000000000000e+01
4.360000000000000000e+02 7.500000000000000000e+01
4.370000000000000000e+02 7.500000000000000000e+01
4.380000000000000000e+02 7.500000000000000000e+01
6.330000000000000000e+02 7.500000000000000000e+01
6.340000000000000000e+02 7.500000000000000000e+01
6.350000000000000000e+02 7.500000000000000000e+01
6.360000000000000000e+02 7.500000000000000000e+01
6.390000000000000000e+02 7.500000000000000000e+01
6.400000000000000000e+02 7.500000000000000000e+01
6.410000000000000000e+02 7.500000000000000000e+01
8.400000000000000000e+02 7.500000000000000000e+01
8.410000000000000000e+02 7.500000000000000000e+01
8.420000000000000000e+02 7.500000000000000000e+01
8.460000000000000000e+02 7.500000000000000000e+01
8.470000000000000000e+02 7.500000000000000000e+01
8.480000000000000000e+02 7.500000000000000000e+01
2.200000000000000000e+02 7.600000000000000000e+01
2.210000000000000000e+02 7.600000000000000000e+01
2.220000000000000000e+02 7.600000000000000000e+01
2.250000000000000000e+02 7.600000000000000000e+01
2.260000000000000000e+02 7.600000000000000000e+01
2.270000000000000000e+02 7.600000000000000000e+01
4.300000000000000000e+02 7.600000000000000000e+01
4.310000000000000000e+02 7.600000000000000000e+01
4.320000000000000000e+02 7.600000000000000000e+01
4.360000000000000000e+02 7.600000000000000000e+01
4.370000000000000000e+02 7.600000000000000000e+01
4.380000000000000000e+02 7.600000000000000000e+01
6.330000000000000000e+02 7.600000000000000000e+01
6.340000000000000000e+02 7.600000000000000000e+01
6.350000000000000000e+02 7.600000000000000000e+01
6.360000000000000000e+02 7.600000000000000000e+01
6.390000000000000000e+02 7.600000000000000000e+01
6.400000000000000000e+02 7.600000000000000000e+01
6.410000000000000000e+02 7.600000000000000000e+01
8.400000000000000000e+02 7.600000000000000000e+01
8.410000000000000000e+02 7.600000000000000000e+01
8.420000000000000000e+02 7.600000000000000000e+01
8.460000000000000000e+02 7.600000000000000000e+01
8.470000000000000000e+02 7.600000000000000000e+01
8.480000000000000000e+02 7.600000000000000000e+01
2.190000000000000000e+02 7.700000000000000000e+01
2.200000000000000000e+02 7.700000000000000000e+01
2.210000000000000000e+02 7.700000000000000000e+01
2.220000000000000000e+02 7.700000000000000000e+01
2.250000000000000000e+02 7.700000000000000000e+01
2.260000000000000000e+02 7.700000000000000000e+01
2.270000000000000000e+02 7.700000000000000000e+01
4.300000000000000000e+02 7.700000000000000000e+01
4.310000000000000000e+02 7.700000000000000000e+01
4.320000000000000000e+02 7.700000000000000000e+01
4.360000000000000000e+02 7.700000000000000000e+01
4.370000000000000000e+02 7.700000000000000000e+01
4.380000000000000000e+02 7.700000000000000000e+01
6.330000000000000000e+02 7.700000000000000000e+01
6.340000000000000000e+02 7.700000000000000000e+01
6.350000000000000000e+02 7.700000000000000000e+01
6.360000000000000000e+02 7.700000000000000000e+01
6.390000000000000000e+02 7.700000000000000000e+01
6.400000000000000000e+02 7.700000000000000000e+01
6.410000000000000000e+02 7.700000000000000000e+01
6.420000000000000000e+02 7.700000000000000000e+01
8.400000000000000000e+02 7.700000000000000000e+01
8.410000000000000000e+02 7.700000000000000000e+01
8.420000000000000000e+02 7.700000000000000000e+01
8.460000000000000000e+02 7.700000000000000000e+01
8.470000000000000000e+02 7.700000000000000000e+01
8.480000000000000000e+02 7.700000000000000000e+01
2.190000000000000000e+02 7.800000000000000000e+01
2.200000000000000000e+02 7.800000000000000000e+01
2.210000000000000000e+02 7.800000000000000000e+01
2.220000000000000000e+02 7.800000000000000000e+01
2.250000000000000000e+02 7.800000000000000000e+01
2.260000000000000000e+02 7.800000000000000000e+01
2.270000000000000000e+02 7.800000000000000000e+01
2.280000000000000000e+02 7.800000000000000000e+01
4.300000000000000000e+02 7.800000000000000000e+01
4.310000000000000000e+02 7.800000000000000000e+01
4.320000000000000000e+02 7.800000000000000000e+01
4.360000000000000000e+02 7.800000000000000000e+01
4.370000000000000000e+02 7.800000000000000000e+01
4.380000000000000000e+02 7.800000000000000000e+01
6.330000000000000000e+02 7.800000000000000000e+01
6.340000000000000000e+02 7.800000000000000000e+01
6.350000000000000000e+02 7.800000000000000000e+01
6.360000000000000000e+02 7.800000000000000000e+01
6.390000000000000000e+02 7.800000000000000000e+01
6.400000000000000000e+02 7.800000000000000000e+01
6.410000000000000000e+02 7.800000000000000000e+01
6.420000000000000000e+02 7.800000000000000000e+01
8.400000000000000000e+02 7.800000000000000000e+01
8.420000000000000000e+02 7.800000000000000000e+01
8.460000000000000000e+02 7.800000000000000000e+01
8.470000000000000000e+02 7.800000000000000000e+01
8.480000000000000000e+02 7.800000000000000000e+01
2.190000000000000000e+02 7.900000000000000000e+01
2.200000000000000000e+02 7.900000000000000000e+01
2.210000000000000000e+02 7.900000000000000000e+01
2.220000000000000000e+02 7.900000000000000000e+01
2.250000000000000000e+02 7.900000000000000000e+01
2.260000000000000000e+02 7.900000000000000000e+01
2.270000000000000000e+02 7.900000000000000000e+01
2.280000000000000000e+02 7.900000000000000000e+01
4.300000000000000000e+02 7.900000000000000000e+01
4.310000000000000000e+02 7.900000000000000000e+01
4.320000000000000000e+02 7.900000000000000000e+01
4.360000000000000000e+02 7.900000000000000000e+01
4.370000000000000000e+02 7.900000000000000000e+01
4.380000000000000000e+02 7.900000000000000000e+01
6.330000000000000000e+02 7.900000000000000000e+01
6.340000000000000000e+02 7.900000000000000000e+01
6.350000000000000000e+02 7.900000000000000000e+01
6.390000000000000000e+02 7.900000000000000000e+01
6.400000000000000000e+02 7.900000000000000000e+01
6.410000000000000000e+02 7.900000000000000000e+01
6.420000000000000000e+02 7.900000000000000000e+01
8.400000000000000000e+02 7.900000000000000000e+01
8.410000000000000000e+02 7.900000000000000000e+01
8.420000000000000000e+02 7.900000000000000000e+01
8.460000000000000000e+02 7.900000000000000000e+01
8.470000000000000000e+02 7.900000000000000000e+01
8.480000000000000000e+02 7.900000000000000000e+01
2.170000000000000000e+02 8.000000000000000000e+01
2.190000000000000000e+02 8.000000000000000000e+01
2.200000000000000000e+02 8.000000000000000000e+01
2.210000000000000000e+02 8.000000000000000000e+01
2.220000000000000000e+02 8.000000000000000000e+01
2.250000000000000000e+02 8.000000000000000000e+01
2.260000000000000000e+02 8.000000000000000000e+01
2.270000000000000000e+02 8.000000000000000000e+01
2.280000000000000000e+02 8.000000000000000000e+01
4.300000000000000000e+02 8.000000000000000000e+01
4.310000000000000000e+02 8.000000000000000000e+01
4.320000000000000000e+02 8.000000000000000000e+01
4.360000000000000000e+02 8.000000000000000000e+01
4.370000000000000000e+02 8.000000000000000000e+01
4.380000000000000000e+02 8.000000000000000000e+01
6.310000000000000000e+02 8.000000000000000000e+01
6.320000000000000000e+02 8.000000000000000000e+01
6.330000000000000000e+02 8.000000000000000000e+01
6.340000000000000000e+02 8.000000000000000000e+01
6.350000000000000000e+02 8.000000000000000000e+01
6.390000000000000000e+02 8.000000000000000000e+01
6.400000000000000000e+02 8.000000000000000000e+01
6.410000000000000000e+02 8.000000000000000000e+01
6.420000000000000000e+02 8.000000000000000000e+01
8.400000000000000000e+02 8.000000000000000000e+01
8.410000000000000000e+02 8.000000000000000000e+01
8.420000000000000000e+02 8.000000000000000000e+01
8.460000000000000000e+02 8.000000000000000000e+01
8.470000000000000000e+02 8.000000000000000000e+01
8.480000000000000000e+02 8.000000000000000000e+01
2.160000000000000000e+02 8.100000000000000000e+01
2.170000000000000000e+02 8.100000000000000000e+01
2.180000000000000000e+02 8.100000000000000000e+01
2.190000000000000000e+02 8.100000000000000000e+01
2.200000000000000000e+02 8.100000000000000000e+01
2.210000000000000000e+02 8.100000000000000000e+01
2.220000000000000000e+02 8.100000000000000000e+01
2.260000000000000000e+02 8.100000000000000000e+01
2.270000000000000000e+02 8.100000000000000000e+01
2.280000000000000000e+02 8.100000000000000000e+01
4.300000000000000000e+02 8.100000000000000000e+01
4.310000000000000000e+02 8.100000000000000000e+01
4.320000000000000000e+02 8.100000000000000000e+01
4.360000000000000000e+02 8.100000000000000000e+01
4.370000000000000000e+02 8.100000000000000000e+01
4.380000000000000000e+02 8.100000000000000000e+01
6.300000000000000000e+02 8.100000000000000000e+01
6.310000000000000000e+02 8.100000000000000000e+01
6.320000000000000000e+02 8.100000000000000000e+01
6.330000000000000000e+02 8.100000000000000000e+01
6.340000000000000000e+02 8.100000000000000000e+01
6.350000000000000000e+02 8.100000000000000000e+01
6.390000000000000000e+02 8.100000000000000000e+01
6.400000000000000000e+02 8.100000000000000000e+01
6.410000000000000000e+02 8.100000000000000000e+01
6.420000000000000000e+02 8.100000000000000000e+01
8.400000000000000000e+02 8.100000000000000000e+01
8.410000000000000000e+02 8.100000000000000000e+01
8.420000000000000000e+02 8.100000000000000000e+01
8.460000000000000000e+02 8.100000000000000000e+01
8.470000000000000000e+02 8.100000000000000000e+01
8.480000000000000000e+02 8.100000000000000000e+01
2.160000000000000000e+02 8.200000000000000000e+01
2.170000000000000000e+02 8.200000000000000000e+01
2.180000000000000000e+02 8.200000000000000000e+01
2.190000000000000000e+02 8.200000000000000000e+01
2.200000000000000000e+02 8.200000000000000000e+01
2.210000000000000000e+02 8.200000000000000000e+01
2.220000000000000000e+02 8.200000000000000000e+01
2.260000000000000000e+02 8.200000000000000000e+01
2.270000000000000000e+02 8.200000000000000000e+01
2.280000000000000000e+02 8.200000000000000000e+01
4.300000000000000000e+02 8.200000000000000000e+01
4.310000000000000000e+02 8.200000000000000000e+01
4.320000000000000000e+02 8.200000000000000000e+01
4.360000000000000000e+02 8.200000000000000000e+01
4.370000000000000000e+02 8.200000000000000000e+01
4.380000000000000000e+02 8.200000000000000000e+01
6.300000000000000000e+02 8.200000000000000000e+01
6.310000000000000000e+02 8.200000000000000000e+01
6.320000000000000000e+02 8.200000000000000000e+01
6.330000000000000000e+02 8.200000000000000000e+01
6.340000000000000000e+02 8.200000000000000000e+01
6.350000000000000000e+02 8.200000000000000000e+01
6.400000000000000000e+02 8.200000000000000000e+01
6.410000000000000000e+02 8.200000000000000000e+01
6.420000000000000000e+02 8.200000000000000000e+01
8.400000000000000000e+02 8.200000000000000000e+01
8.410000000000000000e+02 8.200000000000000000e+01
8.420000000000000000e+02 8.200000000000000000e+01
8.460000000000000000e+02 8.200000000000000000e+01
8.470000000000000000e+02 8.200000000000000000e+01
8.480000000000000000e+02 8.200000000000000000e+01
2.160000000000000000e+02 8.300000000000000000e+01
2.170000000000000000e+02 8.300000000000000000e+01
2.180000000000000000e+02 8.300000000000000000e+01
2.190000000000000000e+02 8.300000000000000000e+01
2.200000000000000000e+02 8.300000000000000000e+01
2.210000000000000000e+02 8.300000000000000000e+01
2.220000000000000000e+02 8.300000000000000000e+01
2.260000000000000000e+02 8.300000000000000000e+01
2.270000000000000000e+02 8.300000000000000000e+01
2.280000000000000000e+02 8.300000000000000000e+01
4.260000000000000000e+02 8.300000000000000000e+01
4.270000000000000000e+02 8.300000000000000000e+01
4.280000000000000000e+02 8.300000000000000000e+01
4.300000000000000000e+02 8.300000000000000000e+01
4.310000000000000000e+02 8.300000000000000000e+01
4.320000000000000000e+02 8.300000000000000000e+01
4.360000000000000000e+02 8.300000000000000000e+01
4.370000000000000000e+02 8.300000000000000000e+01
4.380000000000000000e+02 8.300000000000000000e+01
6.300000000000000000e+02 8.300000000000000000e+01
6.310000000000000000e+02 8.300000000000000000e+01
6.320000000000000000e+02 8.300000000000000000e+01
6.330000000000000000e+02 8.300000000000000000e+01
6.340000000000000000e+02 8.300000000000000000e+01
6.350000000000000000e+02 8.300000000000000000e+01
6.400000000000000000e+02 8.300000000000000000e+01
6.410000000000000000e+02 8.300000000000000000e+01
6.420000000000000000e+02 8.300000000000000000e+01
8.400000000000000000e+02 8.300000000000000000e+01
8.410000000000000000e+02 8.300000000000000000e+01
8.420000000000000000e+02 8.300000000000000000e+01
8.460000000000000000e+02 8.300000000000000000e+01
8.470000000000000000e+02 8.300000000000000000e+01
8.480000000000000000e+02 8.300000000000000000e+01
8.490000000000000000e+02 8.300000000000000000e+01
2.160000000000000000e+02 8.400000000000000000e+01
2.170000000000000000e+02 8.400000000000000000e+01
2.180000000000000000e+02 8.400000000000000000e+01
2.190000000000000000e+02 8.400000000000000000e+01
2.200000000000000000e+02 8.400000000000000000e+01
2.210000000000000000e+02 8.400000000000000000e+01
2.220000000000000000e+02 8.400000000000000000e+01
2.260000000000000000e+02 8.400000000000000000e+01
2.270000000000000000e+02 8.400000000000000000e+01
2.280000000000000000e+02 8.400000000000000000e+01
4.260000000000000000e+02 8.400000000000000000e+01
4.270000000000000000e+02 8.400000000000000000e+01
4.280000000000000000e+02 8.400000000000000000e+01
4.290000000000000000e+02 8.400000000000000000e+01
4.300000000000000000e+02 8.400000000000000000e+01
4.310000000000000000e+02 8.400000000000000000e+01
4.320000000000000000e+02 8.400000000000000000e+01
4.360000000000000000e+02 8.400000000000000000e+01
4.370000000000000000e+02 8.400000000000000000e+01
4.380000000000000000e+02 8.400000000000000000e+01
6.290000000000000000e+02 8.400000000000000000e+01
6.300000000000000000e+02 8.400000000000000000e+01
6.310000000000000000e+02 8.400000000000000000e+01
6.320000000000000000e+02 8.400000000000000000e+01
6.330000000000000000e+02 8.400000000000000000e+01
6.340000000000000000e+02 8.400000000000000000e+01
6.350000000000000000e+02 8.400000000000000000e+01
6.400000000000000000e+02 8.400000000000000000e+01
6.410000000000000000e+02 8.400000000000000000e+01
6.420000000000000000e+02 8.400000000000000000e+01
8.360000000000000000e+02 8.400000000000000000e+01
8.370000000000000000e+02 8.400000000000000000e+01
8.380000000000000000e+02 8.400000000000000000e+01
8.400000000000000000e+02 8.400000000000000000e+01
8.410000000000000000e+02 8.400000000000000000e+01
8.420000000000000000e+02 8.400000000000000000e+01
8.460000000000000000e+02 8.400000000000000000e+01
8.470000000000000000e+02 8.400000000000000000e+01
8.480000000000000000e+02 8.400000000000000000e+01
8.490000000000000000e+02 8.400000000000000000e+01
2.150000000000000000e+02 8.500000000000000000e+01
2.160000000000000000e+02 8.500000000000000000e+01
2.170000000000000000e+02 8.500000000000000000e+01
2.180000000000000000e+02 8.500000000000000000e+01
2.190000000000000000e+02 8.500000000000000000e+01
2.200000000000000000e+02 8.500000000000000000e+01
2.210000000000000000e+02 8.500000000000000000e+01
2.220000000000000000e+02 8.500000000000000000e+01
2.260000000000000000e+02 8.500000000000000000e+01
2.270000000000000000e+02 8.500000000000000000e+01
2.280000000000000000e+02 8.500000000000000000e+01
4.260000000000000000e+02 8.500000000000000000e+01
4.270000000000000000e+02 8.500000000000000000e+01
4.280000000000000000e+02 8.500000000000000000e+01
4.290000000000000000e+02 8.500000000000000000e+01
4.300000000000000000e+02 8.500000000000000000e+01
4.310000000000000000e+02 8.500000000000000000e+01
4.320000000000000000e+02 8.500000000000000000e+01
4.360000000000000000e+02 8.500000000000000000e+01
4.370000000000000000e+02 8.500000000000000000e+01
4.380000000000000000e+02 8.500000000000000000e+01
6.290000000000000000e+02 8.500000000000000000e+01
6.300000000000000000e+02 8.500000000000000000e+01
6.310000000000000000e+02 8.500000000000000000e+01
6.320000000000000000e+02 8.500000000000000000e+01
6.330000000000000000e+02 8.500000000000000000e+01
6.340000000000000000e+02 8.500000000000000000e+01
6.350000000000000000e+02 8.500000000000000000e+01
6.400000000000000000e+02 8.500000000000000000e+01
6.410000000000000000e+02 8.500000000000000000e+01
6.420000000000000000e+02 8.500000000000000000e+01
8.360000000000000000e+02 8.500000000000000000e+01
8.370000000000000000e+02 8.500000000000000000e+01
8.380000000000000000e+02 8.500000000000000000e+01
8.390000000000000000e+02 8.500000000000000000e+01
8.400000000000000000e+02 8.500000000000000000e+01
8.410000000000000000e+02 8.500000000000000000e+01
8.420000000000000000e+02 8.500000000000000000e+01
8.460000000000000000e+02 8.500000000000000000e+01
8.470000000000000000e+02 8.500000000000000000e+01
8.480000000000000000e+02 8.500000000000000000e+01
8.490000000000000000e+02 8.500000000000000000e+01
2.150000000000000000e+02 8.600000000000000000e+01
2.160000000000000000e+02 8.600000000000000000e+01
2.170000000000000000e+02 8.600000000000000000e+01
2.180000000000000000e+02 8.600000000000000000e+01
2.190000000000000000e+02 8.600000000000000000e+01
2.200000000000000000e+02 8.600000000000000000e+01
2.210000000000000000e+02 8.600000000000000000e+01
2.220000000000000000e+02 8.600000000000000000e+01
2.260000000000000000e+02 8.600000000000000000e+01
2.270000000000000000e+02 8.600000000000000000e+01
2.280000000000000000e+02 8.600000000000000000e+01
4.250000000000000000e+02 8.600000000000000000e+01
4.260000000000000000e+02 8.600000000000000000e+01
4.270000000000000000e+02 8.600000000000000000e+01
4.280000000000000000e+02 8.600000000000000000e+01
4.290000000000000000e+02 8.600000000000000000e+01
4.300000000000000000e+02 8.600000000000000000e+01
4.310000000000000000e+02 8.600000000000000000e+01
4.320000000000000000e+02 8.600000000000000000e+01
4.360000000000000000e+02 8.600000000000000000e+01
4.370000000000000000e+02 8.600000000000000000e+01
4.380000000000000000e+02 8.600000000000000000e+01
6.290000000000000000e+02 8.600000000000000000e+01
6.300000000000000000e+02 8.600000000000000000e+01
6.310000000000000000e+02 8.600000000000000000e+01
6.320000000000000000e+02 8.600000000000000000e+01
6.330000000000000000e+02 8.600000000000000000e+01
6.340000000000000000e+02 8.600000000000000000e+01
6.350000000000000000e+02 8.600000000000000000e+01
6.400000000000000000e+02 8.600000000000000000e+01
6.410000000000000000e+02 8.600000000000000000e+01
6.420000000000000000e+02 8.600000000000000000e+01
8.360000000000000000e+02 8.600000000000000000e+01
8.370000000000000000e+02 8.600000000000000000e+01
8.380000000000000000e+02 8.600000000000000000e+01
8.390000000000000000e+02 8.600000000000000000e+01
8.400000000000000000e+02 8.600000000000000000e+01
8.410000000000000000e+02 8.600000000000000000e+01
8.420000000000000000e+02 8.600000000000000000e+01
8.460000000000000000e+02 8.600000000000000000e+01
8.470000000000000000e+02 8.600000000000000000e+01
8.480000000000000000e+02 8.600000000000000000e+01
8.490000000000000000e+02 8.600000000000000000e+01
2.150000000000000000e+02 8.700000000000000000e+01
2.160000000000000000e+02 8.700000000000000000e+01
2.170000000000000000e+02 8.700000000000000000e+01
2.180000000000000000e+02 8.700000000000000000e+01
2.190000000000000000e+02 8.700000000000000000e+01
2.200000000000000000e+02 8.700000000000000000e+01
2.210000000000000000e+02 8.700000000000000000e+01
2.220000000000000000e+02 8.700000000000000000e+01
2.260000000000000000e+02 8.700000000000000000e+01
2.270000000000000000e+02 8.700000000000000000e+01
2.280000000000000000e+02 8.700000000000000000e+01
4.250000000000000000e+02 8.700000000000000000e+01
4.260000000000000000e+02 8.700000000000000000e+01
4.270000000000000000e+02 8.700000000000000000e+01
4.280000000000000000e+02 8.700000000000000000e+01
4.290000000000000000e+02 8.700000000000000000e+01
4.300000000000000000e+02 8.700000000000000000e+01
4.310000000000000000e+02 8.700000000000000000e+01
4.320000000000000000e+02 8.700000000000000000e+01
4.360000000000000000e+02 8.700000000000000000e+01
4.370000000000000000e+02 8.700000000000000000e+01
4.380000000000000000e+02 8.700000000000000000e+01
4.390000000000000000e+02 8.700000000000000000e+01
6.290000000000000000e+02 8.700000000000000000e+01
6.300000000000000000e+02 8.700000000000000000e+01
6.310000000000000000e+02 8.700000000000000000e+01
6.320000000000000000e+02 8.700000000000000000e+01
6.330000000000000000e+02 8.700000000000000000e+01
6.340000000000000000e+02 8.700000000000000000e+01
6.350000000000000000e+02 8.700000000000000000e+01
6.400000000000000000e+02 8.700000000000000000e+01
6.410000000000000000e+02 8.700000000000000000e+01
6.420000000000000000e+02 8.700000000000000000e+01
8.360000000000000000e+02 8.700000000000000000e+01
8.370000000000000000e+02 8.700000000000000000e+01
8.380000000000000000e+02 8.700000000000000000e+01
8.390000000000000000e+02 8.700000000000000000e+01
8.400000000000000000e+02 8.700000000000000000e+01
8.410000000000000000e+02 8.700000000000000000e+01
8.420000000000000000e+02 8.700000000000000000e+01
8.460000000000000000e+02 8.700000000000000000e+01
8.470000000000000000e+02 8.700000000000000000e+01
8.480000000000000000e+02 8.700000000000000000e+01
8.490000000000000000e+02 8.700000000000000000e+01
2.150000000000000000e+02 8.800000000000000000e+01
2.160000000000000000e+02 8.800000000000000000e+01
2.170000000000000000e+02 8.800000000000000000e+01
2.180000000000000000e+02 8.800000000000000000e+01
2.190000000000000000e+02 8.800000000000000000e+01
2.200000000000000000e+02 8.800000000000000000e+01
2.210000000000000000e+02 8.800000000000000000e+01
2.220000000000000000e+02 8.800000000000000000e+01
2.260000000000000000e+02 8.800000000000000000e+01
2.270000000000000000e+02 8.800000000000000000e+01
2.280000000000000000e+02 8.800000000000000000e+01
4.250000000000000000e+02 8.800000000000000000e+01
4.260000000000000000e+02 8.800000000000000000e+01
4.270000000000000000e+02 8.800000000000000000e+01
4.280000000000000000e+02 8.800000000000000000e+01
4.290000000000000000e+02 8.800000000000000000e+01
4.300000000000000000e+02 8.800000000000000000e+01
4.310000000000000000e+02 8.800000000000000000e+01
4.320000000000000000e+02 8.800000000000000000e+01
4.360000000000000000e+02 8.800000000000000000e+01
4.370000000000000000e+02 8.800000000000000000e+01
4.380000000000000000e+02 8.800000000000000000e+01
4.390000000000000000e+02 8.800000000000000000e+01
6.290000000000000000e+02 8.800000000000000000e+01
6.300000000000000000e+02 8.800000000000000000e+01
6.310000000000000000e+02 8.800000000000000000e+01
6.320000000000000000e+02 8.800000000000000000e+01
6.330000000000000000e+02 8.800000000000000000e+01
6.340000000000000000e+02 8.800000000000000000e+01
6.350000000000000000e+02 8.800000000000000000e+01
6.400000000000000000e+02 8.800000000000000000e+01
6.410000000000000000e+02 8.800000000000000000e+01
6.420000000000000000e+02 8.800000000000000000e+01
8.360000000000000000e+02 8.800000000000000000e+01
8.370000000000000000e+02 8.800000000000000000e+01
8.380000000000000000e+02 8.800000000000000000e+01
8.390000000000000000e+02 8.800000000000000000e+01
8.400000000000000000e+02 8.800000000000000000e+01
8.410000000000000000e+02 8.800000000000000000e+01
8.420000000000000000e+02 8.800000000000000000e+01
8.460000000000000000e+02 8.800000000000000000e+01
8.470000000000000000e+02 8.800000000000000000e+01
8.480000000000000000e+02 8.800000000000000000e+01
8.490000000000000000e+02 8.800000000000000000e+01
2.150000000000000000e+02 8.900000000000000000e+01
2.160000000000000000e+02 8.900000000000000000e+01
2.170000000000000000e+02 8.900000000000000000e+01
2.180000000000000000e+02 8.900000000000000000e+01
2.190000000000000000e+02 8.900000000000000000e+01
2.200000000000000000e+02 8.900000000000000000e+01
2.210000000000000000e+02 8.900000000000000000e+01
2.220000000000000000e+02 8.900000000000000000e+01
2.260000000000000000e+02 8.900000000000000000e+01
2.270000000000000000e+02 8.900000000000000000e+01
2.280000000000000000e+02 8.900000000000000000e+01
4.250000000000000000e+02 8.900000000000000000e+01
4.260000000000000000e+02 8.900000000000000000e+01
4.270000000000000000e+02 8.900000000000000000e+01
4.280000000000000000e+02 8.900000000000000000e+01
4.290000000000000000e+02 8.900000000000000000e+01
4.300000000000000000e+02 8.900000000000000000e+01
4.310000000000000000e+02 8.900000000000000000e+01
4.320000000000000000e+02 8.900000000000000000e+01
4.360000000000000000e+02 8.900000000000000000e+01
4.370000000000000000e+02 8.900000000000000000e+01
4.380000000000000000e+02 8.900000000000000000e+01
4.390000000000000000e+02 8.900000000000000000e+01
6.290000000000000000e+02 8.900000000000000000e+01
6.300000000000000000e+02 8.900000000000000000e+01
6.310000000000000000e+02 8.900000000000000000e+01
6.320000000000000000e+02 8.900000000000000000e+01
6.330000000000000000e+02 8.900000000000000000e+01
6.340000000000000000e+02 8.900000000000000000e+01
6.350000000000000000e+02 8.900000000000000000e+01
6.400000000000000000e+02 8.900000000000000000e+01
6.410000000000000000e+02 8.900000000000000000e+01
6.420000000000000000e+02 8.900000000000000000e+01
8.360000000000000000e+02 8.900000000000000000e+01
8.370000000000000000e+02 8.900000000000000000e+01
8.380000000000000000e+02 8.900000000000000000e+01
8.390000000000000000e+02 8.900000000000000000e+01
8.400000000000000000e+02 8.900000000000000000e+01
8.410000000000000000e+02 8.900000000000000000e+01
8.420000000000000000e+02 8.900000000000000000e+01
8.460000000000000000e+02 8.900000000000000000e+01
8.470000000000000000e+02 8.900000000000000000e+01
8.480000000000000000e+02 8.900000000000000000e+01
8.490000000000000000e+02 8.900000000000000000e+01
2.150000000000000000e+02 9.000000000000000000e+01
2.160000000000000000e+02 9.000000000000000000e+01
2.170000000000000000e+02 9.000000000000000000e+01
2.180000000000000000e+02 9.000000000000000000e+01
2.190000000000000000e+02 9.000000000000000000e+01
2.200000000000000000e+02 9.000000000000000000e+01
2.210000000000000000e+02 9.000000000000000000e+01
2.260000000000000000e+02 9.000000000000000000e+01
2.270000000000000000e+02 9.000000000000000000e+01
2.280000000000000000e+02 9.000000000000000000e+01
4.250000000000000000e+02 9.000000000000000000e+01
4.260000000000000000e+02 9.000000000000000000e+01
4.270000000000000000e+02 9.000000000000000000e+01
4.280000000000000000e+02 9.000000000000000000e+01
4.290000000000000000e+02 9.000000000000000000e+01
4.300000000000000000e+02 9.000000000000000000e+01
4.310000000000000000e+02 9.000000000000000000e+01
4.320000000000000000e+02 9.000000000000000000e+01
4.360000000000000000e+02 9.000000000000000000e+01
4.370000000000000000e+02 9.000000000000000000e+01
4.380000000000000000e+02 9.000000000000000000e+01
4.390000000000000000e+02 9.000000000000000000e+01
6.290000000000000000e+02 9.000000000000000000e+01
6.300000000000000000e+02 9.000000000000000000e+01
6.310000000000000000e+02 9.000000000000000000e+01
6.320000000000000000e+02 9.000000000000000000e+01
6.330000000000000000e+02 9.000000000000000000e+01
6.340000000000000000e+02 9.000000000000000000e+01
6.350000000000000000e+02 9.000000000000000000e+01
6.400000000000000000e+02 9.000000000000000000e+01
6.410000000000000000e+02 9.000000000000000000e+01
6.420000000000000000e+02 9.000000000000000000e+01
8.360000000000000000e+02 9.000000000000000000e+01
8.370000000000000000e+02 9.000000000000000000e+01
8.380000000000000000e+02 9.000000000000000000e+01
8.390000000000000000e+02 9.000000000000000000e+01
8.400000000000000000e+02 9.000000000000000000e+01
8.410000000000000000e+02 9.000000000000000000e+01
8.420000000000000000e+02 9.000000000000000000e+01
8.470000000000000000e+02 9.000000000000000000e+01
8.480000000000000000e+02 9.000000000000000000e+01
8.490000000000000000e+02 9.000000000000000000e+01
2.150000000000000000e+02 9.100000000000000000e+01
2.160000000000000000e+02 9.100000000000000000e+01
2.170000000000000000e+02 9.100000000000000000e+01
2.180000000000000000e+02 9.100000000000000000e+01
2.190000000000000000e+02 9.100000000000000000e+01
2.200000000000000000e+02 9.100000000000000000e+01
2.210000000000000000e+02 9.100000000000000000e+01
2.260000000000000000e+02 9.100000000000000000e+01
2.270000000000000000e+02 9.100000000000000000e+01
2.280000000000000000e+02 9.100000000000000000e+01
2.290000000000000000e+02 9.100000000000000000e+01
4.250000000000000000e+02 9.100000000000000000e+01
4.260000000000000000e+02 9.100000000000000000e+01
4.270000000000000000e+02 9.100000000000000000e+01
4.280000000000000000e+02 9.100000000000000000e+01
4.290000000000000000e+02 9.100000000000000000e+01
4.300000000000000000e+02 9.100000000000000000e+01
4.310000000000000000e+02 9.100000000000000000e+01
4.320000000000000000e+02 9.100000000000000000e+01
4.360000000000000000e+02 9.100000000000000000e+01
4.370000000000000000e+02 9.100000000000000000e+01
4.380000000000000000e+02 9.100000000000000000e+01
4.390000000000000000e+02 9.100000000000000000e+01
6.290000000000000000e+02 9.100000000000000000e+01
6.300000000000000000e+02 9.100000000000000000e+01
6.310000000000000000e+02 9.100000000000000000e+01
6.320000000000000000e+02 9.100000000000000000e+01
6.330000000000000000e+02 9.100000000000000000e+01
6.340000000000000000e+02 9.100000000000000000e+01
6.350000000000000000e+02 9.100000000000000000e+01
6.400000000000000000e+02 9.100000000000000000e+01
6.410000000000000000e+02 9.100000000000000000e+01
6.420000000000000000e+02 9.100000000000000000e+01
8.360000000000000000e+02 9.100000000000000000e+01
8.370000000000000000e+02 9.100000000000000000e+01
8.380000000000000000e+02 9.100000000000000000e+01
8.390000000000000000e+02 9.100000000000000000e+01
8.400000000000000000e+02 9.100000000000000000e+01
8.410000000000000000e+02 9.100000000000000000e+01
8.420000000000000000e+02 9.100000000000000000e+01
8.470000000000000000e+02 9.100000000000000000e+01
8.480000000000000000e+02 9.100000000000000000e+01
8.490000000000000000e+02 9.100000000000000000e+01
4.300000000000000000e+01 9.200000000000000000e+01
4.400000000000000000e+01 9.200000000000000000e+01
4.500000000000000000e+01 9.200000000000000000e+01
4.600000000000000000e+01 9.200000000000000000e+01
4.700000000000000000e+01 9.200000000000000000e+01
4.800000000000000000e+01 9.200000000000000000e+01
4.900000000000000000e+01 9.200000000000000000e+01
5.600000000000000000e+01 9.200000000000000000e+01
5.700000000000000000e+01 9.200000000000000000e+01
5.800000000000000000e+01 9.200000000000000000e+01
5.900000000000000000e+01 9.200000000000000000e+01
6.000000000000000000e+01 9.200000000000000000e+01
6.100000000000000000e+01 9.200000000000000000e+01
6.300000000000000000e+01 9.200000000000000000e+01
6.400000000000000000e+01 9.200000000000000000e+01
6.500000000000000000e+01 9.200000000000000000e+01
6.600000000000000000e+01 9.200000000000000000e+01
6.700000000000000000e+01 9.200000000000000000e+01
6.800000000000000000e+01 9.200000000000000000e+01
6.900000000000000000e+01 9.200000000000000000e+01
7.000000000000000000e+01 9.200000000000000000e+01
7.100000000000000000e+01 9.200000000000000000e+01
7.200000000000000000e+01 9.200000000000000000e+01
7.300000000000000000e+01 9.200000000000000000e+01
7.400000000000000000e+01 9.200000000000000000e+01
7.500000000000000000e+01 9.200000000000000000e+01
2.150000000000000000e+02 9.200000000000000000e+01
2.160000000000000000e+02 9.200000000000000000e+01
2.170000000000000000e+02 9.200000000000000000e+01
2.180000000000000000e+02 9.200000000000000000e+01
2.190000000000000000e+02 9.200000000000000000e+01
2.200000000000000000e+02 9.200000000000000000e+01
2.210000000000000000e+02 9.200000000000000000e+01
2.260000000000000000e+02 9.200000000000000000e+01
2.270000000000000000e+02 9.200000000000000000e+01
2.280000000000000000e+02 9.200000000000000000e+01
2.290000000000000000e+02 9.200000000000000000e+01
4.250000000000000000e+02 9.200000000000000000e+01
4.260000000000000000e+02 9.200000000000000000e+01
4.270000000000000000e+02 9.200000000000000000e+01
4.280000000000000000e+02 9.200000000000000000e+01
4.290000000000000000e+02 9.200000000000000000e+01
4.300000000000000000e+02 9.200000000000000000e+01
4.310000000000000000e+02 9.200000000000000000e+01
4.320000000000000000e+02 9.200000000000000000e+01
4.360000000000000000e+02 9.200000000000000000e+01
4.370000000000000000e+02 9.200000000000000000e+01
4.380000000000000000e+02 9.200000000000000000e+01
4.390000000000000000e+02 9.200000000000000000e+01
6.290000000000000000e+02 9.200000000000000000e+01
6.300000000000000000e+02 9.200000000000000000e+01
6.310000000000000000e+02 9.200000000000000000e+01
6.320000000000000000e+02 9.200000000000000000e+01
6.330000000000000000e+02 9.200000000000000000e+01
6.340000000000000000e+02 9.200000000000000000e+01
6.350000000000000000e+02 9.200000000000000000e+01
6.400000000000000000e+02 9.200000000000000000e+01
6.410000000000000000e+02 9.200000000000000000e+01
6.420000000000000000e+02 9.200000000000000000e+01
8.350000000000000000e+02 9.200000000000000000e+01
8.360000000000000000e+02 9.200000000000000000e+01
8.370000000000000000e+02 9.200000000000000000e+01
8.380000000000000000e+02 9.200000000000000000e+01
8.390000000000000000e+02 9.200000000000000000e+01
8.400000000000000000e+02 9.200000000000000000e+01
8.410000000000000000e+02 9.200000000000000000e+01
8.420000000000000000e+02 9.200000000000000000e+01
8.470000000000000000e+02 9.200000000000000000e+01
8.480000000000000000e+02 9.200000000000000000e+01
8.490000000000000000e+02 9.200000000000000000e+01
4.400000000000000000e+01 9.300000000000000000e+01
4.500000000000000000e+01 9.300000000000000000e+01
4.600000000000000000e+01 9.300000000000000000e+01
4.700000000000000000e+01 9.300000000000000000e+01
5.800000000000000000e+01 9.300000000000000000e+01
5.900000000000000000e+01 9.300000000000000000e+01
6.000000000000000000e+01 9.300000000000000000e+01
6.500000000000000000e+01 9.300000000000000000e+01
6.600000000000000000e+01 9.300000000000000000e+01
6.700000000000000000e+01 9.300000000000000000e+01
7.300000000000000000e+01 9.300000000000000000e+01
7.400000000000000000e+01 9.300000000000000000e+01
7.500000000000000000e+01 9.300000000000000000e+01
2.150000000000000000e+02 9.300000000000000000e+01
2.160000000000000000e+02 9.300000000000000000e+01
2.170000000000000000e+02 9.300000000000000000e+01
2.180000000000000000e+02 9.300000000000000000e+01
2.190000000000000000e+02 9.300000000000000000e+01
2.200000000000000000e+02 9.300000000000000000e+01
2.210000000000000000e+02 9.300000000000000000e+01
2.260000000000000000e+02 9.300000000000000000e+01
2.270000000000000000e+02 9.300000000000000000e+01
2.280000000000000000e+02 9.300000000000000000e+01
2.290000000000000000e+02 9.300000000000000000e+01
4.250000000000000000e+02 9.300000000000000000e+01
4.260000000000000000e+02 9.300000000000000000e+01
4.270000000000000000e+02 9.300000000000000000e+01
4.280000000000000000e+02 9.300000000000000000e+01
4.290000000000000000e+02 9.300000000000000000e+01
4.300000000000000000e+02 9.300000000000000000e+01
4.310000000000000000e+02 9.300000000000000000e+01
4.320000000000000000e+02 9.300000000000000000e+01
4.370000000000000000e+02 9.300000000000000000e+01
4.380000000000000000e+02 9.300000000000000000e+01
4.390000000000000000e+02 9.300000000000000000e+01
6.290000000000000000e+02 9.300000000000000000e+01
6.300000000000000000e+02 9.300000000000000000e+01
6.310000000000000000e+02 9.300000000000000000e+01
6.320000000000000000e+02 9.300000000000000000e+01
6.330000000000000000e+02 9.300000000000000000e+01
6.340000000000000000e+02 9.300000000000000000e+01
6.350000000000000000e+02 9.300000000000000000e+01
6.400000000000000000e+02 9.300000000000000000e+01
6.410000000000000000e+02 9.300000000000000000e+01
6.420000000000000000e+02 9.300000000000000000e+01
8.350000000000000000e+02 9.300000000000000000e+01
8.360000000000000000e+02 9.300000000000000000e+01
8.370000000000000000e+02 9.300000000000000000e+01
8.380000000000000000e+02 9.300000000000000000e+01
8.390000000000000000e+02 9.300000000000000000e+01
8.400000000000000000e+02 9.300000000000000000e+01
8.410000000000000000e+02 9.300000000000000000e+01
8.420000000000000000e+02 9.300000000000000000e+01
8.470000000000000000e+02 9.300000000000000000e+01
8.480000000000000000e+02 9.300000000000000000e+01
8.490000000000000000e+02 9.300000000000000000e+01
4.500000000000000000e+01 9.400000000000000000e+01
4.600000000000000000e+01 9.400000000000000000e+01
4.700000000000000000e+01 9.400000000000000000e+01
5.800000000000000000e+01 9.400000000000000000e+01
5.900000000000000000e+01 9.400000000000000000e+01
6.500000000000000000e+01 9.400000000000000000e+01
6.600000000000000000e+01 9.400000000000000000e+01
6.700000000000000000e+01 9.400000000000000000e+01
7.500000000000000000e+01 9.400000000000000000e+01
2.150000000000000000e+02 9.400000000000000000e+01
2.160000000000000000e+02 9.400000000000000000e+01
2.170000000000000000e+02 9.400000000000000000e+01
2.180000000000000000e+02 9.400000000000000000e+01
2.190000000000000000e+02 9.400000000000000000e+01
2.200000000000000000e+02 9.400000000000000000e+01
2.210000000000000000e+02 9.400000000000000000e+01
2.260000000000000000e+02 9.400000000000000000e+01
2.270000000000000000e+02 9.400000000000000000e+01
2.280000000000000000e+02 9.400000000000000000e+01
2.290000000000000000e+02 9.400000000000000000e+01
4.250000000000000000e+02 9.400000000000000000e+01
4.260000000000000000e+02 9.400000000000000000e+01
4.270000000000000000e+02 9.400000000000000000e+01
4.280000000000000000e+02 9.400000000000000000e+01
4.290000000000000000e+02 9.400000000000000000e+01
4.300000000000000000e+02 9.400000000000000000e+01
4.310000000000000000e+02 9.400000000000000000e+01
4.320000000000000000e+02 9.400000000000000000e+01
4.370000000000000000e+02 9.400000000000000000e+01
4.380000000000000000e+02 9.400000000000000000e+01
4.390000000000000000e+02 9.400000000000000000e+01
6.280000000000000000e+02 9.400000000000000000e+01
6.290000000000000000e+02 9.400000000000000000e+01
6.300000000000000000e+02 9.400000000000000000e+01
6.310000000000000000e+02 9.400000000000000000e+01
6.320000000000000000e+02 9.400000000000000000e+01
6.330000000000000000e+02 9.400000000000000000e+01
6.340000000000000000e+02 9.400000000000000000e+01
6.350000000000000000e+02 9.400000000000000000e+01
6.400000000000000000e+02 9.400000000000000000e+01
6.410000000000000000e+02 9.400000000000000000e+01
6.420000000000000000e+02 9.400000000000000000e+01
8.350000000000000000e+02 9.400000000000000000e+01
8.360000000000000000e+02 9.400000000000000000e+01
8.370000000000000000e+02 9.400000000000000000e+01
8.380000000000000000e+02 9.400000000000000000e+01
8.390000000000000000e+02 9.400000000000000000e+01
8.400000000000000000e+02 9.400000000000000000e+01
8.410000000000000000e+02 9.400000000000000000e+01
8.420000000000000000e+02 9.400000000000000000e+01
8.470000000000000000e+02 9.400000000000000000e+01
8.480000000000000000e+02 9.400000000000000000e+01
8.490000000000000000e+02 9.400000000000000000e+01
4.600000000000000000e+01 9.500000000000000000e+01
4.700000000000000000e+01 9.500000000000000000e+01
5.800000000000000000e+01 9.500000000000000000e+01
6.500000000000000000e+01 9.500000000000000000e+01
6.600000000000000000e+01 9.500000000000000000e+01
6.700000000000000000e+01 9.500000000000000000e+01
2.150000000000000000e+02 9.500000000000000000e+01
2.160000000000000000e+02 9.500000000000000000e+01
2.170000000000000000e+02 9.500000000000000000e+01
2.180000000000000000e+02 9.500000000000000000e+01
2.190000000000000000e+02 9.500000000000000000e+01
2.200000000000000000e+02 9.500000000000000000e+01
2.210000000000000000e+02 9.500000000000000000e+01
2.260000000000000000e+02 9.500000000000000000e+01
2.270000000000000000e+02 9.500000000000000000e+01
2.280000000000000000e+02 9.500000000000000000e+01
2.290000000000000000e+02 9.500000000000000000e+01
4.250000000000000000e+02 9.500000000000000000e+01
4.260000000000000000e+02 9.500000000000000000e+01
4.270000000000000000e+02 9.500000000000000000e+01
4.280000000000000000e+02 9.500000000000000000e+01
4.290000000000000000e+02 9.500000000000000000e+01
4.300000000000000000e+02 9.500000000000000000e+01
4.310000000000000000e+02 9.500000000000000000e+01
4.320000000000000000e+02 9.500000000000000000e+01
4.370000000000000000e+02 9.500000000000000000e+01
4.380000000000000000e+02 9.500000000000000000e+01
4.390000000000000000e+02 9.500000000000000000e+01
6.280000000000000000e+02 9.500000000000000000e+01
6.290000000000000000e+02 9.500000000000000000e+01
6.300000000000000000e+02 9.500000000000000000e+01
6.310000000000000000e+02 9.500000000000000000e+01
6.320000000000000000e+02 9.500000000000000000e+01
6.330000000000000000e+02 9.500000000000000000e+01
6.340000000000000000e+02 9.500000000000000000e+01
6.350000000000000000e+02 9.500000000000000000e+01
6.400000000000000000e+02 9.500000000000000000e+01
6.410000000000000000e+02 9.500000000000000000e+01
6.420000000000000000e+02 9.500000000000000000e+01
6.430000000000000000e+02 9.500000000000000000e+01
8.350000000000000000e+02 9.500000000000000000e+01
8.360000000000000000e+02 9.500000000000000000e+01
8.370000000000000000e+02 9.500000000000000000e+01
8.380000000000000000e+02 9.500000000000000000e+01
8.390000000000000000e+02 9.500000000000000000e+01
8.400000000000000000e+02 9.500000000000000000e+01
8.410000000000000000e+02 9.500000000000000000e+01
8.420000000000000000e+02 9.500000000000000000e+01
8.470000000000000000e+02 9.500000000000000000e+01
8.480000000000000000e+02 9.500000000000000000e+01
8.490000000000000000e+02 9.500000000000000000e+01
4.600000000000000000e+01 9.600000000000000000e+01
4.700000000000000000e+01 9.600000000000000000e+01
4.800000000000000000e+01 9.600000000000000000e+01
5.800000000000000000e+01 9.600000000000000000e+01
6.500000000000000000e+01 9.600000000000000000e+01
6.600000000000000000e+01 9.600000000000000000e+01
6.700000000000000000e+01 9.600000000000000000e+01
7.600000000000000000e+01 9.600000000000000000e+01
2.140000000000000000e+02 9.600000000000000000e+01
2.150000000000000000e+02 9.600000000000000000e+01
2.160000000000000000e+02 9.600000000000000000e+01
2.170000000000000000e+02 9.600000000000000000e+01
2.180000000000000000e+02 9.600000000000000000e+01
2.190000000000000000e+02 9.600000000000000000e+01
2.200000000000000000e+02 9.600000000000000000e+01
2.210000000000000000e+02 9.600000000000000000e+01
2.260000000000000000e+02 9.600000000000000000e+01
2.270000000000000000e+02 9.600000000000000000e+01
2.280000000000000000e+02 9.600000000000000000e+01
2.290000000000000000e+02 9.600000000000000000e+01
4.250000000000000000e+02 9.600000000000000000e+01
4.260000000000000000e+02 9.600000000000000000e+01
4.270000000000000000e+02 9.600000000000000000e+01
4.280000000000000000e+02 9.600000000000000000e+01
4.290000000000000000e+02 9.600000000000000000e+01
4.300000000000000000e+02 9.600000000000000000e+01
4.310000000000000000e+02 9.600000000000000000e+01
4.320000000000000000e+02 9.600000000000000000e+01
4.370000000000000000e+02 9.600000000000000000e+01
4.380000000000000000e+02 9.600000000000000000e+01
4.390000000000000000e+02 9.600000000000000000e+01
6.280000000000000000e+02 9.600000000000000000e+01
6.290000000000000000e+02 9.600000000000000000e+01
6.300000000000000000e+02 9.600000000000000000e+01
6.310000000000000000e+02 9.600000000000000000e+01
6.320000000000000000e+02 9.600000000000000000e+01
6.330000000000000000e+02 9.600000000000000000e+01
6.340000000000000000e+02 9.600000000000000000e+01
6.350000000000000000e+02 9.600000000000000000e+01
6.400000000000000000e+02 9.600000000000000000e+01
6.410000000000000000e+02 9.600000000000000000e+01
6.420000000000000000e+02 9.600000000000000000e+01
6.430000000000000000e+02 9.600000000000000000e+01
8.350000000000000000e+02 9.600000000000000000e+01
8.360000000000000000e+02 9.600000000000000000e+01
8.370000000000000000e+02 9.600000000000000000e+01
8.380000000000000000e+02 9.600000000000000000e+01
8.390000000000000000e+02 9.600000000000000000e+01
8.400000000000000000e+02 9.600000000000000000e+01
8.410000000000000000e+02 9.600000000000000000e+01
8.420000000000000000e+02 9.600000000000000000e+01
8.470000000000000000e+02 9.600000000000000000e+01
8.480000000000000000e+02 9.600000000000000000e+01
8.490000000000000000e+02 9.600000000000000000e+01
4.600000000000000000e+01 9.700000000000000000e+01
4.700000000000000000e+01 9.700000000000000000e+01
4.800000000000000000e+01 9.700000000000000000e+01
5.700000000000000000e+01 9.700000000000000000e+01
5.800000000000000000e+01 9.700000000000000000e+01
6.500000000000000000e+01 9.700000000000000000e+01
6.600000000000000000e+01 9.700000000000000000e+01
6.700000000000000000e+01 9.700000000000000000e+01
2.140000000000000000e+02 9.700000000000000000e+01
2.150000000000000000e+02 9.700000000000000000e+01
2.160000000000000000e+02 9.700000000000000000e+01
2.170000000000000000e+02 9.700000000000000000e+01
2.180000000000000000e+02 9.700000000000000000e+01
2.190000000000000000e+02 9.700000000000000000e+01
2.200000000000000000e+02 9.700000000000000000e+01
2.210000000000000000e+02 9.700000000000000000e+01
2.260000000000000000e+02 9.700000000000000000e+01
2.270000000000000000e+02 9.700000000000000000e+01
2.280000000000000000e+02 9.700000000000000000e+01
2.290000000000000000e+02 9.700000000000000000e+01
4.240000000000000000e+02 9.700000000000000000e+01
4.250000000000000000e+02 9.700000000000000000e+01
4.260000000000000000e+02 9.700000000000000000e+01
4.270000000000000000e+02 9.700000000000000000e+01
4.280000000000000000e+02 9.700000000000000000e+01
4.290000000000000000e+02 9.700000000000000000e+01
4.300000000000000000e+02 9.700000000000000000e+01
4.310000000000000000e+02 9.700000000000000000e+01
4.370000000000000000e+02 9.700000000000000000e+01
4.380000000000000000e+02 9.700000000000000000e+01
4.390000000000000000e+02 9.700000000000000000e+01
6.280000000000000000e+02 9.700000000000000000e+01
6.290000000000000000e+02 9.700000000000000000e+01
6.300000000000000000e+02 9.700000000000000000e+01
6.310000000000000000e+02 9.700000000000000000e+01
6.320000000000000000e+02 9.700000000000000000e+01
6.330000000000000000e+02 9.700000000000000000e+01
6.340000000000000000e+02 9.700000000000000000e+01
6.350000000000000000e+02 9.700000000000000000e+01
6.400000000000000000e+02 9.700000000000000000e+01
6.410000000000000000e+02 9.700000000000000000e+01
6.420000000000000000e+02 9.700000000000000000e+01
6.430000000000000000e+02 9.700000000000000000e+01
8.350000000000000000e+02 9.700000000000000000e+01
8.360000000000000000e+02 9.700000000000000000e+01
8.370000000000000000e+02 9.700000000000000000e+01
8.380000000000000000e+02 9.700000000000000000e+01
8.390000000000000000e+02 9.700000000000000000e+01
8.400000000000000000e+02 9.700000000000000000e+01
8.410000000000000000e+02 9.700000000000000000e+01
8.420000000000000000e+02 9.700000000000000000e+01
8.470000000000000000e+02 9.700000000000000000e+01
8.480000000000000000e+02 9.700000000000000000e+01
8.490000000000000000e+02 9.700000000000000000e+01
3.100000000000000000e+01 9.800000000000000000e+01
3.200000000000000000e+01 9.800000000000000000e+01
3.300000000000000000e+01 9.800000000000000000e+01
3.400000000000000000e+01 9.800000000000000000e+01
3.500000000000000000e+01 9.800000000000000000e+01
4.700000000000000000e+01 9.800000000000000000e+01
4.800000000000000000e+01 9.800000000000000000e+01
4.900000000000000000e+01 9.800000000000000000e+01
5.700000000000000000e+01 9.800000000000000000e+01
6.500000000000000000e+01 9.800000000000000000e+01
6.600000000000000000e+01 9.800000000000000000e+01
6.700000000000000000e+01 9.800000000000000000e+01
2.140000000000000000e+02 9.800000000000000000e+01
2.150000000000000000e+02 9.800000000000000000e+01
2.160000000000000000e+02 9.800000000000000000e+01
2.170000000000000000e+02 9.800000000000000000e+01
2.180000000000000000e+02 9.800000000000000000e+01
2.190000000000000000e+02 9.800000000000000000e+01
2.200000000000000000e+02 9.800000000000000000e+01
2.210000000000000000e+02 9.800000000000000000e+01
2.270000000000000000e+02 9.800000000000000000e+01
2.280000000000000000e+02 9.800000000000000000e+01
2.290000000000000000e+02 9.800000000000000000e+01
4.240000000000000000e+02 9.800000000000000000e+01
4.250000000000000000e+02 9.800000000000000000e+01
4.260000000000000000e+02 9.800000000000000000e+01
4.270000000000000000e+02 9.800000000000000000e+01
4.280000000000000000e+02 9.800000000000000000e+01
4.290000000000000000e+02 9.800000000000000000e+01
4.300000000000000000e+02 9.800000000000000000e+01
4.310000000000000000e+02 9.800000000000000000e+01
4.370000000000000000e+02 9.800000000000000000e+01
4.380000000000000000e+02 9.800000000000000000e+01
4.390000000000000000e+02 9.800000000000000000e+01
6.280000000000000000e+02 9.800000000000000000e+01
6.290000000000000000e+02 9.800000000000000000e+01
6.300000000000000000e+02 9.800000000000000000e+01
6.310000000000000000e+02 9.800000000000000000e+01
6.320000000000000000e+02 9.800000000000000000e+01
6.330000000000000000e+02 9.800000000000000000e+01
6.340000000000000000e+02 9.800000000000000000e+01
6.350000000000000000e+02 9.800000000000000000e+01
6.400000000000000000e+02 9.800000000000000000e+01
6.410000000000000000e+02 9.800000000000000000e+01
6.420000000000000000e+02 9.800000000000000000e+01
6.430000000000000000e+02 9.800000000000000000e+01
8.350000000000000000e+02 9.800000000000000000e+01
8.360000000000000000e+02 9.800000000000000000e+01
8.370000000000000000e+02 9.800000000000000000e+01
8.380000000000000000e+02 9.800000000000000000e+01
8.390000000000000000e+02 9.800000000000000000e+01
8.400000000000000000e+02 9.800000000000000000e+01
8.410000000000000000e+02 9.800000000000000000e+01
8.420000000000000000e+02 9.800000000000000000e+01
8.470000000000000000e+02 9.800000000000000000e+01
8.480000000000000000e+02 9.800000000000000000e+01
8.490000000000000000e+02 9.800000000000000000e+01
3.000000000000000000e+01 9.900000000000000000e+01
3.100000000000000000e+01 9.900000000000000000e+01
3.500000000000000000e+01 9.900000000000000000e+01
3.600000000000000000e+01 9.900000000000000000e+01
4.700000000000000000e+01 9.900000000000000000e+01
4.800000000000000000e+01 9.900000000000000000e+01
4.900000000000000000e+01 9.900000000000000000e+01
5.700000000000000000e+01 9.900000000000000000e+01
6.500000000000000000e+01 9.900000000000000000e+01
6.600000000000000000e+01 9.900000000000000000e+01
6.700000000000000000e+01 9.900000000000000000e+01
7.300000000000000000e+01 9.900000000000000000e+01
2.140000000000000000e+02 9.900000000000000000e+01
2.150000000000000000e+02 9.900000000000000000e+01
2.160000000000000000e+02 9.900000000000000000e+01
2.170000000000000000e+02 9.900000000000000000e+01
2.180000000000000000e+02 9.900000000000000000e+01
2.190000000000000000e+02 9.900000000000000000e+01
2.200000000000000000e+02 9.900000000000000000e+01
2.210000000000000000e+02 9.900000000000000000e+01
2.270000000000000000e+02 9.900000000000000000e+01
2.280000000000000000e+02 9.900000000000000000e+01
2.290000000000000000e+02 9.900000000000000000e+01
4.240000000000000000e+02 9.900000000000000000e+01
4.250000000000000000e+02 9.900000000000000000e+01
4.260000000000000000e+02 9.900000000000000000e+01
4.270000000000000000e+02 9.900000000000000000e+01
4.280000000000000000e+02 9.900000000000000000e+01
4.290000000000000000e+02 9.900000000000000000e+01
4.300000000000000000e+02 9.900000000000000000e+01
4.310000000000000000e+02 9.900000000000000000e+01
4.370000000000000000e+02 9.900000000000000000e+01
4.380000000000000000e+02 9.900000000000000000e+01
4.390000000000000000e+02 9.900000000000000000e+01
6.280000000000000000e+02 9.900000000000000000e+01
6.290000000000000000e+02 9.900000000000000000e+01
6.300000000000000000e+02 9.900000000000000000e+01
6.320000000000000000e+02 9.900000000000000000e+01
6.330000000000000000e+02 9.900000000000000000e+01
6.340000000000000000e+02 9.900000000000000000e+01
6.350000000000000000e+02 9.900000000000000000e+01
6.400000000000000000e+02 9.900000000000000000e+01
6.410000000000000000e+02 9.900000000000000000e+01
6.420000000000000000e+02 9.900000000000000000e+01
6.430000000000000000e+02 9.900000000000000000e+01
8.350000000000000000e+02 9.900000000000000000e+01
8.360000000000000000e+02 9.900000000000000000e+01
8.370000000000000000e+02 9.900000000000000000e+01
8.380000000000000000e+02 9.900000000000000000e+01
8.390000000000000000e+02 9.900000000000000000e+01
8.400000000000000000e+02 9.900000000000000000e+01
8.410000000000000000e+02 9.900000000000000000e+01
8.420000000000000000e+02 9.900000000000000000e+01
8.470000000000000000e+02 9.900000000000000000e+01
8.480000000000000000e+02 9.900000000000000000e+01
8.490000000000000000e+02 9.900000000000000000e+01
2.900000000000000000e+01 1.000000000000000000e+02
3.000000000000000000e+01 1.000000000000000000e+02
3.500000000000000000e+01 1.000000000000000000e+02
3.600000000000000000e+01 1.000000000000000000e+02
3.700000000000000000e+01 1.000000000000000000e+02
4.800000000000000000e+01 1.000000000000000000e+02
4.900000000000000000e+01 1.000000000000000000e+02
5.000000000000000000e+01 1.000000000000000000e+02
5.600000000000000000e+01 1.000000000000000000e+02
6.500000000000000000e+01 1.000000000000000000e+02
6.600000000000000000e+01 1.000000000000000000e+02
6.700000000000000000e+01 1.000000000000000000e+02
7.300000000000000000e+01 1.000000000000000000e+02
2.140000000000000000e+02 1.000000000000000000e+02
2.150000000000000000e+02 1.000000000000000000e+02
2.160000000000000000e+02 1.000000000000000000e+02
2.180000000000000000e+02 1.000000000000000000e+02
2.190000000000000000e+02 1.000000000000000000e+02
2.200000000000000000e+02 1.000000000000000000e+02
2.210000000000000000e+02 1.000000000000000000e+02
2.270000000000000000e+02 1.000000000000000000e+02
2.280000000000000000e+02 1.000000000000000000e+02
2.290000000000000000e+02 1.000000000000000000e+02
4.240000000000000000e+02 1.000000000000000000e+02
4.250000000000000000e+02 1.000000000000000000e+02
4.260000000000000000e+02 1.000000000000000000e+02
4.280000000000000000e+02 1.000000000000000000e+02
4.290000000000000000e+02 1.000000000000000000e+02
4.300000000000000000e+02 1.000000000000000000e+02
4.310000000000000000e+02 1.000000000000000000e+02
4.370000000000000000e+02 1.000000000000000000e+02
4.380000000000000000e+02 1.000000000000000000e+02
4.390000000000000000e+02 1.000000000000000000e+02
6.280000000000000000e+02 1.000000000000000000e+02
6.290000000000000000e+02 1.000000000000000000e+02
6.300000000000000000e+02 1.000000000000000000e+02
6.320000000000000000e+02 1.000000000000000000e+02
6.330000000000000000e+02 1.000000000000000000e+02
6.340000000000000000e+02 1.000000000000000000e+02
6.350000000000000000e+02 1.000000000000000000e+02
6.400000000000000000e+02 1.000000000000000000e+02
6.410000000000000000e+02 1.000000000000000000e+02
6.420000000000000000e+02 1.000000000000000000e+02
6.430000000000000000e+02 1.000000000000000000e+02
8.350000000000000000e+02 1.000000000000000000e+02
8.360000000000000000e+02 1.000000000000000000e+02
8.370000000000000000e+02 1.000000000000000000e+02
8.380000000000000000e+02 1.000000000000000000e+02
8.390000000000000000e+02 1.000000000000000000e+02
8.400000000000000000e+02 1.000000000000000000e+02
8.410000000000000000e+02 1.000000000000000000e+02
8.420000000000000000e+02 1.000000000000000000e+02
8.470000000000000000e+02 1.000000000000000000e+02
8.480000000000000000e+02 1.000000000000000000e+02
8.490000000000000000e+02 1.000000000000000000e+02
2.900000000000000000e+01 1.010000000000000000e+02
3.000000000000000000e+01 1.010000000000000000e+02
3.500000000000000000e+01 1.010000000000000000e+02
3.600000000000000000e+01 1.010000000000000000e+02
3.700000000000000000e+01 1.010000000000000000e+02
4.800000000000000000e+01 1.010000000000000000e+02
4.900000000000000000e+01 1.010000000000000000e+02
5.000000000000000000e+01 1.010000000000000000e+02
5.600000000000000000e+01 1.010000000000000000e+02
6.500000000000000000e+01 1.010000000000000000e+02
6.600000000000000000e+01 1.010000000000000000e+02
6.700000000000000000e+01 1.010000000000000000e+02
6.800000000000000000e+01 1.010000000000000000e+02
6.900000000000000000e+01 1.010000000000000000e+02
7.000000000000000000e+01 1.010000000000000000e+02
7.100000000000000000e+01 1.010000000000000000e+02
7.200000000000000000e+01 1.010000000000000000e+02
7.300000000000000000e+01 1.010000000000000000e+02
2.140000000000000000e+02 1.010000000000000000e+02
2.150000000000000000e+02 1.010000000000000000e+02
2.160000000000000000e+02 1.010000000000000000e+02
2.180000000000000000e+02 1.010000000000000000e+02
2.190000000000000000e+02 1.010000000000000000e+02
2.200000000000000000e+02 1.010000000000000000e+02
2.210000000000000000e+02 1.010000000000000000e+02
2.270000000000000000e+02 1.010000000000000000e+02
2.280000000000000000e+02 1.010000000000000000e+02
2.290000000000000000e+02 1.010000000000000000e+02
4.240000000000000000e+02 1.010000000000000000e+02
4.250000000000000000e+02 1.010000000000000000e+02
4.260000000000000000e+02 1.010000000000000000e+02
4.280000000000000000e+02 1.010000000000000000e+02
4.290000000000000000e+02 1.010000000000000000e+02
4.300000000000000000e+02 1.010000000000000000e+02
4.310000000000000000e+02 1.010000000000000000e+02
4.370000000000000000e+02 1.010000000000000000e+02
4.380000000000000000e+02 1.010000000000000000e+02
4.390000000000000000e+02 1.010000000000000000e+02
6.280000000000000000e+02 1.010000000000000000e+02
6.290000000000000000e+02 1.010000000000000000e+02
6.300000000000000000e+02 1.010000000000000000e+02
6.320000000000000000e+02 1.010000000000000000e+02
6.330000000000000000e+02 1.010000000000000000e+02
6.340000000000000000e+02 1.010000000000000000e+02
6.350000000000000000e+02 1.010000000000000000e+02
6.410000000000000000e+02 1.010000000000000000e+02
6.420000000000000000e+02 1.010000000000000000e+02
6.430000000000000000e+02 1.010000000000000000e+02
8.340000000000000000e+02 1.010000000000000000e+02
8.350000000000000000e+02 1.010000000000000000e+02
8.360000000000000000e+02 1.010000000000000000e+02
8.370000000000000000e+02 1.010000000000000000e+02
8.380000000000000000e+02 1.010000000000000000e+02
8.390000000000000000e+02 1.010000000000000000e+02
8.400000000000000000e+02 1.010000000000000000e+02
8.410000000000000000e+02 1.010000000000000000e+02
8.420000000000000000e+02 1.010000000000000000e+02
8.470000000000000000e+02 1.010000000000000000e+02
8.480000000000000000e+02 1.010000000000000000e+02
8.490000000000000000e+02 1.010000000000000000e+02
3.000000000000000000e+01 1.020000000000000000e+02
3.600000000000000000e+01 1.020000000000000000e+02
3.700000000000000000e+01 1.020000000000000000e+02
4.900000000000000000e+01 1.020000000000000000e+02
5.000000000000000000e+01 1.020000000000000000e+02
5.500000000000000000e+01 1.020000000000000000e+02
5.600000000000000000e+01 1.020000000000000000e+02
6.500000000000000000e+01 1.020000000000000000e+02
6.600000000000000000e+01 1.020000000000000000e+02
6.700000000000000000e+01 1.020000000000000000e+02
7.300000000000000000e+01 1.020000000000000000e+02
2.140000000000000000e+02 1.020000000000000000e+02
2.150000000000000000e+02 1.020000000000000000e+02
2.160000000000000000e+02 1.020000000000000000e+02
2.180000000000000000e+02 1.020000000000000000e+02
2.190000000000000000e+02 1.020000000000000000e+02
2.200000000000000000e+02 1.020000000000000000e+02
2.210000000000000000e+02 1.020000000000000000e+02
2.270000000000000000e+02 1.020000000000000000e+02
2.280000000000000000e+02 1.020000000000000000e+02
2.290000000000000000e+02 1.020000000000000000e+02
4.240000000000000000e+02 1.020000000000000000e+02
4.250000000000000000e+02 1.020000000000000000e+02
4.260000000000000000e+02 1.020000000000000000e+02
4.280000000000000000e+02 1.020000000000000000e+02
4.290000000000000000e+02 1.020000000000000000e+02
4.300000000000000000e+02 1.020000000000000000e+02
4.310000000000000000e+02 1.020000000000000000e+02
4.370000000000000000e+02 1.020000000000000000e+02
4.380000000000000000e+02 1.020000000000000000e+02
4.390000000000000000e+02 1.020000000000000000e+02
6.280000000000000000e+02 1.020000000000000000e+02
6.290000000000000000e+02 1.020000000000000000e+02
6.300000000000000000e+02 1.020000000000000000e+02
6.320000000000000000e+02 1.020000000000000000e+02
6.330000000000000000e+02 1.020000000000000000e+02
6.340000000000000000e+02 1.020000000000000000e+02
6.350000000000000000e+02 1.020000000000000000e+02
6.410000000000000000e+02 1.020000000000000000e+02
6.420000000000000000e+02 1.020000000000000000e+02
6.430000000000000000e+02 1.020000000000000000e+02
8.340000000000000000e+02 1.020000000000000000e+02
8.350000000000000000e+02 1.020000000000000000e+02
8.360000000000000000e+02 1.020000000000000000e+02
8.370000000000000000e+02 1.020000000000000000e+02
8.380000000000000000e+02 1.020000000000000000e+02
8.390000000000000000e+02 1.020000000000000000e+02
8.400000000000000000e+02 1.020000000000000000e+02
8.410000000000000000e+02 1.020000000000000000e+02
8.420000000000000000e+02 1.020000000000000000e+02
8.470000000000000000e+02 1.020000000000000000e+02
8.480000000000000000e+02 1.020000000000000000e+02
8.490000000000000000e+02 1.020000000000000000e+02
3.300000000000000000e+01 1.030000000000000000e+02
3.400000000000000000e+01 1.030000000000000000e+02
3.500000000000000000e+01 1.030000000000000000e+02
3.600000000000000000e+01 1.030000000000000000e+02
3.700000000000000000e+01 1.030000000000000000e+02
4.900000000000000000e+01 1.030000000000000000e+02
5.000000000000000000e+01 1.030000000000000000e+02
5.100000000000000000e+01 1.030000000000000000e+02
5.500000000000000000e+01 1.030000000000000000e+02
6.500000000000000000e+01 1.030000000000000000e+02
6.600000000000000000e+01 1.030000000000000000e+02
6.700000000000000000e+01 1.030000000000000000e+02
2.140000000000000000e+02 1.030000000000000000e+02
2.150000000000000000e+02 1.030000000000000000e+02
2.160000000000000000e+02 1.030000000000000000e+02
2.180000000000000000e+02 1.030000000000000000e+02
2.190000000000000000e+02 1.030000000000000000e+02
2.200000000000000000e+02 1.030000000000000000e+02
2.210000000000000000e+02 1.030000000000000000e+02
2.270000000000000000e+02 1.030000000000000000e+02
2.280000000000000000e+02 1.030000000000000000e+02
2.290000000000000000e+02 1.030000000000000000e+02
4.240000000000000000e+02 1.030000000000000000e+02
4.250000000000000000e+02 1.030000000000000000e+02
4.260000000000000000e+02 1.030000000000000000e+02
4.280000000000000000e+02 1.030000000000000000e+02
4.290000000000000000e+02 1.030000000000000000e+02
4.300000000000000000e+02 1.030000000000000000e+02
4.310000000000000000e+02 1.030000000000000000e+02
4.370000000000000000e+02 1.030000000000000000e+02
4.380000000000000000e+02 1.030000000000000000e+02
4.390000000000000000e+02 1.030000000000000000e+02
6.280000000000000000e+02 1.030000000000000000e+02
6.290000000000000000e+02 1.030000000000000000e+02
6.300000000000000000e+02 1.030000000000000000e+02
6.320000000000000000e+02 1.030000000000000000e+02
6.330000000000000000e+02 1.030000000000000000e+02
6.340000000000000000e+02 1.030000000000000000e+02
6.410000000000000000e+02 1.030000000000000000e+02
6.420000000000000000e+02 1.030000000000000000e+02
6.430000000000000000e+02 1.030000000000000000e+02
8.340000000000000000e+02 1.030000000000000000e+02
8.350000000000000000e+02 1.030000000000000000e+02
8.360000000000000000e+02 1.030000000000000000e+02
8.380000000000000000e+02 1.030000000000000000e+02
8.390000000000000000e+02 1.030000000000000000e+02
8.400000000000000000e+02 1.030000000000000000e+02
8.410000000000000000e+02 1.030000000000000000e+02
8.420000000000000000e+02 1.030000000000000000e+02
8.470000000000000000e+02 1.030000000000000000e+02
8.480000000000000000e+02 1.030000000000000000e+02
8.490000000000000000e+02 1.030000000000000000e+02
3.100000000000000000e+01 1.040000000000000000e+02
3.200000000000000000e+01 1.040000000000000000e+02
3.600000000000000000e+01 1.040000000000000000e+02
3.700000000000000000e+01 1.040000000000000000e+02
4.900000000000000000e+01 1.040000000000000000e+02
5.000000000000000000e+01 1.040000000000000000e+02
5.100000000000000000e+01 1.040000000000000000e+02
5.500000000000000000e+01 1.040000000000000000e+02
6.500000000000000000e+01 1.040000000000000000e+02
6.600000000000000000e+01 1.040000000000000000e+02
6.700000000000000000e+01 1.040000000000000000e+02
2.130000000000000000e+02 1.040000000000000000e+02
2.140000000000000000e+02 1.040000000000000000e+02
2.150000000000000000e+02 1.040000000000000000e+02
2.160000000000000000e+02 1.040000000000000000e+02
2.180000000000000000e+02 1.040000000000000000e+02
2.190000000000000000e+02 1.040000000000000000e+02
2.200000000000000000e+02 1.040000000000000000e+02
2.210000000000000000e+02 1.040000000000000000e+02
2.270000000000000000e+02 1.040000000000000000e+02
2.280000000000000000e+02 1.040000000000000000e+02
2.290000000000000000e+02 1.040000000000000000e+02
4.240000000000000000e+02 1.040000000000000000e+02
4.250000000000000000e+02 1.040000000000000000e+02
4.260000000000000000e+02 1.040000000000000000e+02
4.280000000000000000e+02 1.040000000000000000e+02
4.290000000000000000e+02 1.040000000000000000e+02
4.300000000000000000e+02 1.040000000000000000e+02
4.310000000000000000e+02 1.040000000000000000e+02
4.370000000000000000e+02 1.040000000000000000e+02
4.380000000000000000e+02 1.040000000000000000e+02
4.390000000000000000e+02 1.040000000000000000e+02
6.280000000000000000e+02 1.040000000000000000e+02
6.290000000000000000e+02 1.040000000000000000e+02
6.300000000000000000e+02 1.040000000000000000e+02
6.410000000000000000e+02 1.040000000000000000e+02
6.420000000000000000e+02 1.040000000000000000e+02
6.430000000000000000e+02 1.040000000000000000e+02
8.340000000000000000e+02 1.040000000000000000e+02
8.350000000000000000e+02 1.040000000000000000e+02
8.360000000000000000e+02 1.040000000000000000e+02
8.380000000000000000e+02 1.040000000000000000e+02
8.390000000000000000e+02 1.040000000000000000e+02
8.400000000000000000e+02 1.040000000000000000e+02
8.410000000000000000e+02 1.040000000000000000e+02
8.420000000000000000e+02 1.040000000000000000e+02
8.470000000000000000e+02 1.040000000000000000e+02
8.480000000000000000e+02 1.040000000000000000e+02
8.490000000000000000e+02 1.040000000000000000e+02
8.500000000000000000e+02 1.040000000000000000e+02
3.000000000000000000e+01 1.050000000000000000e+02
3.100000000000000000e+01 1.050000000000000000e+02
3.600000000000000000e+01 1.050000000000000000e+02
3.700000000000000000e+01 1.050000000000000000e+02
5.000000000000000000e+01 1.050000000000000000e+02
5.100000000000000000e+01 1.050000000000000000e+02
5.200000000000000000e+01 1.050000000000000000e+02
5.400000000000000000e+01 1.050000000000000000e+02
6.500000000000000000e+01 1.050000000000000000e+02
6.600000000000000000e+01 1.050000000000000000e+02
6.700000000000000000e+01 1.050000000000000000e+02
2.130000000000000000e+02 1.050000000000000000e+02
2.140000000000000000e+02 1.050000000000000000e+02
2.150000000000000000e+02 1.050000000000000000e+02
2.160000000000000000e+02 1.050000000000000000e+02
2.180000000000000000e+02 1.050000000000000000e+02
2.190000000000000000e+02 1.050000000000000000e+02
2.200000000000000000e+02 1.050000000000000000e+02
2.210000000000000000e+02 1.050000000000000000e+02
2.270000000000000000e+02 1.050000000000000000e+02
2.280000000000000000e+02 1.050000000000000000e+02
2.290000000000000000e+02 1.050000000000000000e+02
4.230000000000000000e+02 1.050000000000000000e+02
4.240000000000000000e+02 1.050000000000000000e+02
4.250000000000000000e+02 1.050000000000000000e+02
4.260000000000000000e+02 1.050000000000000000e+02
4.280000000000000000e+02 1.050000000000000000e+02
4.290000000000000000e+02 1.050000000000000000e+02
4.300000000000000000e+02 1.050000000000000000e+02
4.310000000000000000e+02 1.050000000000000000e+02
4.370000000000000000e+02 1.050000000000000000e+02
4.380000000000000000e+02 1.050000000000000000e+02
4.390000000000000000e+02 1.050000000000000000e+02
4.400000000000000000e+02 1.050000000000000000e+02
6.280000000000000000e+02 1.050000000000000000e+02
6.290000000000000000e+02 1.050000000000000000e+02
6.300000000000000000e+02 1.050000000000000000e+02
6.410000000000000000e+02 1.050000000000000000e+02
6.420000000000000000e+02 1.050000000000000000e+02
6.430000000000000000e+02 1.050000000000000000e+02
8.340000000000000000e+02 1.050000000000000000e+02
8.350000000000000000e+02 1.050000000000000000e+02
8.360000000000000000e+02 1.050000000000000000e+02
8.380000000000000000e+02 1.050000000000000000e+02
8.390000000000000000e+02 1.050000000000000000e+02
8.400000000000000000e+02 1.050000000000000000e+02
8.410000000000000000e+02 1.050000000000000000e+02
8.420000000000000000e+02 1.050000000000000000e+02
8.470000000000000000e+02 1.050000000000000000e+02
8.480000000000000000e+02 1.050000000000000000e+02
8.490000000000000000e+02 1.050000000000000000e+02
8.500000000000000000e+02 1.050000000000000000e+02
2.900000000000000000e+01 1.060000000000000000e+02
3.000000000000000000e+01 1.060000000000000000e+02
3.600000000000000000e+01 1.060000000000000000e+02
3.700000000000000000e+01 1.060000000000000000e+02
5.000000000000000000e+01 1.060000000000000000e+02
5.100000000000000000e+01 1.060000000000000000e+02
5.200000000000000000e+01 1.060000000000000000e+02
5.400000000000000000e+01 1.060000000000000000e+02
6.500000000000000000e+01 1.060000000000000000e+02
6.600000000000000000e+01 1.060000000000000000e+02
6.700000000000000000e+01 1.060000000000000000e+02
2.130000000000000000e+02 1.060000000000000000e+02
2.140000000000000000e+02 1.060000000000000000e+02
2.150000000000000000e+02 1.060000000000000000e+02
2.180000000000000000e+02 1.060000000000000000e+02
2.190000000000000000e+02 1.060000000000000000e+02
2.200000000000000000e+02 1.060000000000000000e+02
2.210000000000000000e+02 1.060000000000000000e+02
2.270000000000000000e+02 1.060000000000000000e+02
2.280000000000000000e+02 1.060000000000000000e+02
2.290000000000000000e+02 1.060000000000000000e+02
4.230000000000000000e+02 1.060000000000000000e+02
4.240000000000000000e+02 1.060000000000000000e+02
4.250000000000000000e+02 1.060000000000000000e+02
4.260000000000000000e+02 1.060000000000000000e+02
4.280000000000000000e+02 1.060000000000000000e+02
4.290000000000000000e+02 1.060000000000000000e+02
4.300000000000000000e+02 1.060000000000000000e+02
4.310000000000000000e+02 1.060000000000000000e+02
4.370000000000000000e+02 1.060000000000000000e+02
4.380000000000000000e+02 1.060000000000000000e+02
4.390000000000000000e+02 1.060000000000000000e+02
4.400000000000000000e+02 1.060000000000000000e+02
6.280000000000000000e+02 1.060000000000000000e+02
6.290000000000000000e+02 1.060000000000000000e+02
6.300000000000000000e+02 1.060000000000000000e+02
6.410000000000000000e+02 1.060000000000000000e+02
6.420000000000000000e+02 1.060000000000000000e+02
6.430000000000000000e+02 1.060000000000000000e+02
8.340000000000000000e+02 1.060000000000000000e+02
8.350000000000000000e+02 1.060000000000000000e+02
8.360000000000000000e+02 1.060000000000000000e+02
8.380000000000000000e+02 1.060000000000000000e+02
8.390000000000000000e+02 1.060000000000000000e+02
8.400000000000000000e+02 1.060000000000000000e+02
8.410000000000000000e+02 1.060000000000000000e+02
8.420000000000000000e+02 1.060000000000000000e+02
8.470000000000000000e+02 1.060000000000000000e+02
8.480000000000000000e+02 1.060000000000000000e+02
8.490000000000000000e+02 1.060000000000000000e+02
8.500000000000000000e+02 1.060000000000000000e+02
2.900000000000000000e+01 1.070000000000000000e+02
3.000000000000000000e+01 1.070000000000000000e+02
3.600000000000000000e+01 1.070000000000000000e+02
3.700000000000000000e+01 1.070000000000000000e+02
5.100000000000000000e+01 1.070000000000000000e+02
5.200000000000000000e+01 1.070000000000000000e+02
5.300000000000000000e+01 1.070000000000000000e+02
5.400000000000000000e+01 1.070000000000000000e+02
6.500000000000000000e+01 1.070000000000000000e+02
6.600000000000000000e+01 1.070000000000000000e+02
6.700000000000000000e+01 1.070000000000000000e+02
2.130000000000000000e+02 1.070000000000000000e+02
2.140000000000000000e+02 1.070000000000000000e+02
2.150000000000000000e+02 1.070000000000000000e+02
2.180000000000000000e+02 1.070000000000000000e+02
2.190000000000000000e+02 1.070000000000000000e+02
2.200000000000000000e+02 1.070000000000000000e+02
2.270000000000000000e+02 1.070000000000000000e+02
2.280000000000000000e+02 1.070000000000000000e+02
2.290000000000000000e+02 1.070000000000000000e+02
2.900000000000000000e+02 1.070000000000000000e+02
2.910000000000000000e+02 1.070000000000000000e+02
2.920000000000000000e+02 1.070000000000000000e+02
4.230000000000000000e+02 1.070000000000000000e+02
4.240000000000000000e+02 1.070000000000000000e+02
4.250000000000000000e+02 1.070000000000000000e+02
4.260000000000000000e+02 1.070000000000000000e+02
4.290000000000000000e+02 1.070000000000000000e+02
4.300000000000000000e+02 1.070000000000000000e+02
4.370000000000000000e+02 1.070000000000000000e+02
4.380000000000000000e+02 1.070000000000000000e+02
4.390000000000000000e+02 1.070000000000000000e+02
4.400000000000000000e+02 1.070000000000000000e+02
6.270000000000000000e+02 1.070000000000000000e+02
6.280000000000000000e+02 1.070000000000000000e+02
6.290000000000000000e+02 1.070000000000000000e+02
6.300000000000000000e+02 1.070000000000000000e+02
6.410000000000000000e+02 1.070000000000000000e+02
6.420000000000000000e+02 1.070000000000000000e+02
6.430000000000000000e+02 1.070000000000000000e+02
8.340000000000000000e+02 1.070000000000000000e+02
8.350000000000000000e+02 1.070000000000000000e+02
8.360000000000000000e+02 1.070000000000000000e+02
8.380000000000000000e+02 1.070000000000000000e+02
8.390000000000000000e+02 1.070000000000000000e+02
8.400000000000000000e+02 1.070000000000000000e+02
8.410000000000000000e+02 1.070000000000000000e+02
8.470000000000000000e+02 1.070000000000000000e+02
8.480000000000000000e+02 1.070000000000000000e+02
8.490000000000000000e+02 1.070000000000000000e+02
8.500000000000000000e+02 1.070000000000000000e+02
2.900000000000000000e+01 1.080000000000000000e+02
3.000000000000000000e+01 1.080000000000000000e+02
3.500000000000000000e+01 1.080000000000000000e+02
3.600000000000000000e+01 1.080000000000000000e+02
3.700000000000000000e+01 1.080000000000000000e+02
5.100000000000000000e+01 1.080000000000000000e+02
5.200000000000000000e+01 1.080000000000000000e+02
5.300000000000000000e+01 1.080000000000000000e+02
6.500000000000000000e+01 1.080000000000000000e+02
6.600000000000000000e+01 1.080000000000000000e+02
6.700000000000000000e+01 1.080000000000000000e+02
2.130000000000000000e+02 1.080000000000000000e+02
2.140000000000000000e+02 1.080000000000000000e+02
2.150000000000000000e+02 1.080000000000000000e+02
2.270000000000000000e+02 1.080000000000000000e+02
2.280000000000000000e+02 1.080000000000000000e+02
2.290000000000000000e+02 1.080000000000000000e+02
2.300000000000000000e+02 1.080000000000000000e+02
2.810000000000000000e+02 1.080000000000000000e+02
2.820000000000000000e+02 1.080000000000000000e+02
2.830000000000000000e+02 1.080000000000000000e+02
2.900000000000000000e+02 1.080000000000000000e+02
2.910000000000000000e+02 1.080000000000000000e+02
2.920000000000000000e+02 1.080000000000000000e+02
4.230000000000000000e+02 1.080000000000000000e+02
4.240000000000000000e+02 1.080000000000000000e+02
4.250000000000000000e+02 1.080000000000000000e+02
4.260000000000000000e+02 1.080000000000000000e+02
4.370000000000000000e+02 1.080000000000000000e+02
4.380000000000000000e+02 1.080000000000000000e+02
4.390000000000000000e+02 1.080000000000000000e+02
4.400000000000000000e+02 1.080000000000000000e+02
6.270000000000000000e+02 1.080000000000000000e+02
6.280000000000000000e+02 1.080000000000000000e+02
6.290000000000000000e+02 1.080000000000000000e+02
6.300000000000000000e+02 1.080000000000000000e+02
6.410000000000000000e+02 1.080000000000000000e+02
6.420000000000000000e+02 1.080000000000000000e+02
6.430000000000000000e+02 1.080000000000000000e+02
6.990000000000000000e+02 1.080000000000000000e+02
7.000000000000000000e+02 1.080000000000000000e+02
7.010000000000000000e+02 1.080000000000000000e+02
7.020000000000000000e+02 1.080000000000000000e+02
7.030000000000000000e+02 1.080000000000000000e+02
7.040000000000000000e+02 1.080000000000000000e+02
8.340000000000000000e+02 1.080000000000000000e+02
8.350000000000000000e+02 1.080000000000000000e+02
8.360000000000000000e+02 1.080000000000000000e+02
8.380000000000000000e+02 1.080000000000000000e+02
8.390000000000000000e+02 1.080000000000000000e+02
8.400000000000000000e+02 1.080000000000000000e+02
8.410000000000000000e+02 1.080000000000000000e+02
8.470000000000000000e+02 1.080000000000000000e+02
8.480000000000000000e+02 1.080000000000000000e+02
8.490000000000000000e+02 1.080000000000000000e+02
8.500000000000000000e+02 1.080000000000000000e+02
2.900000000000000000e+01 1.090000000000000000e+02
3.000000000000000000e+01 1.090000000000000000e+02
3.100000000000000000e+01 1.090000000000000000e+02
3.400000000000000000e+01 1.090000000000000000e+02
3.600000000000000000e+01 1.090000000000000000e+02
3.700000000000000000e+01 1.090000000000000000e+02
3.900000000000000000e+01 1.090000000000000000e+02
5.200000000000000000e+01 1.090000000000000000e+02
5.300000000000000000e+01 1.090000000000000000e+02
6.500000000000000000e+01 1.090000000000000000e+02
6.600000000000000000e+01 1.090000000000000000e+02
6.700000000000000000e+01 1.090000000000000000e+02
8.000000000000000000e+01 1.090000000000000000e+02
8.100000000000000000e+01 1.090000000000000000e+02
8.200000000000000000e+01 1.090000000000000000e+02
8.300000000000000000e+01 1.090000000000000000e+02
2.130000000000000000e+02 1.090000000000000000e+02
2.140000000000000000e+02 1.090000000000000000e+02
2.150000000000000000e+02 1.090000000000000000e+02
2.270000000000000000e+02 1.090000000000000000e+02
2.280000000000000000e+02 1.090000000000000000e+02
2.290000000000000000e+02 1.090000000000000000e+02
2.300000000000000000e+02 1.090000000000000000e+02
2.810000000000000000e+02 1.090000000000000000e+02
2.820000000000000000e+02 1.090000000000000000e+02
2.830000000000000000e+02 1.090000000000000000e+02
2.840000000000000000e+02 1.090000000000000000e+02
2.850000000000000000e+02 1.090000000000000000e+02
2.860000000000000000e+02 1.090000000000000000e+02
2.870000000000000000e+02 1.090000000000000000e+02
2.880000000000000000e+02 1.090000000000000000e+02
2.890000000000000000e+02 1.090000000000000000e+02
2.900000000000000000e+02 1.090000000000000000e+02
2.910000000000000000e+02 1.090000000000000000e+02
2.920000000000000000e+02 1.090000000000000000e+02
2.930000000000000000e+02 1.090000000000000000e+02
4.230000000000000000e+02 1.090000000000000000e+02
4.240000000000000000e+02 1.090000000000000000e+02
4.250000000000000000e+02 1.090000000000000000e+02
4.370000000000000000e+02 1.090000000000000000e+02
4.380000000000000000e+02 1.090000000000000000e+02
4.390000000000000000e+02 1.090000000000000000e+02
4.400000000000000000e+02 1.090000000000000000e+02
4.980000000000000000e+02 1.090000000000000000e+02
4.990000000000000000e+02 1.090000000000000000e+02
5.000000000000000000e+02 1.090000000000000000e+02
5.010000000000000000e+02 1.090000000000000000e+02
6.270000000000000000e+02 1.090000000000000000e+02
6.280000000000000000e+02 1.090000000000000000e+02
6.290000000000000000e+02 1.090000000000000000e+02
6.410000000000000000e+02 1.090000000000000000e+02
6.420000000000000000e+02 1.090000000000000000e+02
6.430000000000000000e+02 1.090000000000000000e+02
6.990000000000000000e+02 1.090000000000000000e+02
7.000000000000000000e+02 1.090000000000000000e+02
7.010000000000000000e+02 1.090000000000000000e+02
7.020000000000000000e+02 1.090000000000000000e+02
7.030000000000000000e+02 1.090000000000000000e+02
7.040000000000000000e+02 1.090000000000000000e+02
7.050000000000000000e+02 1.090000000000000000e+02
8.340000000000000000e+02 1.090000000000000000e+02
8.350000000000000000e+02 1.090000000000000000e+02
8.360000000000000000e+02 1.090000000000000000e+02
8.380000000000000000e+02 1.090000000000000000e+02
8.390000000000000000e+02 1.090000000000000000e+02
8.400000000000000000e+02 1.090000000000000000e+02
8.410000000000000000e+02 1.090000000000000000e+02
8.470000000000000000e+02 1.090000000000000000e+02
8.480000000000000000e+02 1.090000000000000000e+02
8.490000000000000000e+02 1.090000000000000000e+02
8.500000000000000000e+02 1.090000000000000000e+02
9.050000000000000000e+02 1.090000000000000000e+02
9.060000000000000000e+02 1.090000000000000000e+02
9.070000000000000000e+02 1.090000000000000000e+02
3.000000000000000000e+01 1.100000000000000000e+02
3.100000000000000000e+01 1.100000000000000000e+02
3.200000000000000000e+01 1.100000000000000000e+02
3.300000000000000000e+01 1.100000000000000000e+02
3.600000000000000000e+01 1.100000000000000000e+02
3.700000000000000000e+01 1.100000000000000000e+02
3.800000000000000000e+01 1.100000000000000000e+02
5.200000000000000000e+01 1.100000000000000000e+02
6.300000000000000000e+01 1.100000000000000000e+02
