4.050000000000000000e+02 0.000000000000000000e+00
4.060000000000000000e+02 0.000000000000000000e+00
4.070000000000000000e+02 0.000000000000000000e+00
4.080000000000000000e+02 0.000000000000000000e+00
4.060000000000000000e+02 1.000000000000000000e+00
4.070000000000000000e+02 1.000000000000000000e+00
4.060000000000000000e+02 5.900000000000000000e+01
4.070000000000000000e+02 5.900000000000000000e+01
4.050000000000000000e+02 6.000000000000000000e+01
4.060000000000000000e+02 6.000000000000000000e+01
4.070000000000000000e+02 6.000000000000000000e+01
4.080000000000000000e+02 6.000000000000000000e+01
4.050000000000000000e+02 6.100000000000000000e+01
4.060000000000000000e+02 6.100000000000000000e+01
4.070000000000000000e+02 6.100000000000000000e+01
4.080000000000000000e+02 6.100000000000000000e+01
4.050000000000000000e+02 6.200000000000000000e+01
4.060000000000000000e+02 6.200000000000000000e+01
4.070000000000000000e+02 6.200000000000000000e+01
4.080000000000000000e+02 6.200000000000000000e+01
4.050000000000000000e+02 6.300000000000000000e+01
4.060000000000000000e+02 6.300000000000000000e+01
4.070000000000000000e+02 6.300000000000000000e+01
4.080000000000000000e+02 6.300000000000000000e+01
4.050000000000000000e+02 6.400000000000000000e+01
4.060000000000000000e+02 6.400000000000000000e+01
4.070000000000000000e+02 6.400000000000000000e+01
4.080000000000000000e+02 6.400000000000000000e+01
4.050000000000000000e+02 6.500000000000000000e+01
4.060000000000000000e+02 6.500000000000000000e+01
4.070000000000000000e+02 6.500000000000000000e+01
4.080000000000000000e+02 6.500000000000000000e+01
4.050000000000000000e+02 6.600000000000000000e+01
4.060000000000000000e+02 6.600000000000000000e+01
4.070000000000000000e+02 6.600000000000000000e+01
4.080000000000000000e+02 6.600000000000000000e+01
4.040000000000000000e+02 6.700000000000000000e+01
4.050000000000000000e+02 6.700000000000000000e+01
4.060000000000000000e+02 6.700000000000000000e+01
4.070000000000000000e+02 6.700000000000000000e+01
4.080000000000000000e+02 6.700000000000000000e+01
4.040000000000000000e+02 6.800000000000000000e+01
4.050000000000000000e+02 6.800000000000000000e+01
4.060000000000000000e+02 6.800000000000000000e+01
4.070000000000000000e+02 6.800000000000000000e+01
4.080000000000000000e+02 6.800000000000000000e+01
4.040000000000000000e+02 6.900000000000000000e+01
4.050000000000000000e+02 6.900000000000000000e+01
4.060000000000000000e+02 6.900000000000000000e+01
4.070000000000000000e+02 6.900000000000000000e+01
4.080000000000000000e+02 6.900000000000000000e+01
4.040000000000000000e+02 7.000000000000000000e+01
4.050000000000000000e+02 7.000000000000000000e+01
4.060000000000000000e+02 7.000000000000000000e+01
4.070000000000000000e+02 7.000000000000000000e+01
4.080000000000000000e+02 7.000000000000000000e+01
4.040000000000000000e+02 7.100000000000000000e+01
4.050000000000000000e+02 7.100000000000000000e+01
4.060000000000000000e+02 7.100000000000000000e+01
4.070000000000000000e+02 7.100000000000000000e+01
4.080000000000000000e+02 7.100000000000000000e+01
4.040000000000000000e+02 7.200000000000000000e+01
4.050000000000000000e+02 7.200000000000000000e+01
4.060000000000000000e+02 7.200000000000000000e+01
4.070000000000000000e+02 7.200000000000000000e+01
4.080000000000000000e+02 7.200000000000000000e+01
4.040000000000000000e+02 7.300000000000000000e+01
4.050000000000000000e+02 7.300000000000000000e+01
4.060000000000000000e+02 7.300000000000000000e+01
4.070000000000000000e+02 7.300000000000000000e+01
4.080000000000000000e+02 7.300000000000000000e+01
8.940000000000000000e+02 7.300000000000000000e+01
8.950000000000000000e+02 7.300000000000000000e+01
2.350000000000000000e+02 7.400000000000000000e+01
2.360000000000000000e+02 7.400000000000000000e+01
2.370000000000000000e+02 7.400000000000000000e+01
4.040000000000000000e+02 7.400000000000000000e+01
4.050000000000000000e+02 7.400000000000000000e+01
4.060000000000000000e+02 7.400000000000000000e+01
4.070000000000000000e+02 7.400000000000000000e+01
4.080000000000000000e+02 7.400000000000000000e+01
8.930000000000000000e+02 7.400000000000000000e+01
8.940000000000000000e+02 7.400000000000000000e+01
8.950000000000000000e+02 7.400000000000000000e+01
8.960000000000000000e+02 7.400000000000000000e+01
2.350000000000000000e+02 7.500000000000000000e+01
2.360000000000000000e+02 7.500000000000000000e+01
2.370000000000000000e+02 7.500000000000000000e+01
4.040000000000000000e+02 7.500000000000000000e+01
4.050000000000000000e+02 7.500000000000000000e+01
4.060000000000000000e+02 7.500000000000000000e+01
4.070000000000000000e+02 7.500000000000000000e+01
4.080000000000000000e+02 7.500000000000000000e+01
8.930000000000000000e+02 7.500000000000000000e+01
8.940000000000000000e+02 7.500000000000000000e+01
8.950000000000000000e+02 7.500000000000000000e+01
8.960000000000000000e+02 7.500000000000000000e+01
2.350000000000000000e+02 7.600000000000000000e+01
2.360000000000000000e+02 7.600000000000000000e+01
2.370000000000000000e+02 7.600000000000000000e+01
2.380000000000000000e+02 7.600000000000000000e+01
4.040000000000000000e+02 7.600000000000000000e+01
4.050000000000000000e+02 7.600000000000000000e+01
4.060000000000000000e+02 7.600000000000000000e+01
4.070000000000000000e+02 7.600000000000000000e+01
4.080000000000000000e+02 7.600000000000000000e+01
4.090000000000000000e+02 7.600000000000000000e+01
7.490000000000000000e+02 7.600000000000000000e+01
8.930000000000000000e+02 7.600000000000000000e+01
8.940000000000000000e+02 7.600000000000000000e+01
8.950000000000000000e+02 7.600000000000000000e+01
8.960000000000000000e+02 7.600000000000000000e+01
2.350000000000000000e+02 7.700000000000000000e+01
2.360000000000000000e+02 7.700000000000000000e+01
2.370000000000000000e+02 7.700000000000000000e+01
2.380000000000000000e+02 7.700000000000000000e+01
4.040000000000000000e+02 7.700000000000000000e+01
4.050000000000000000e+02 7.700000000000000000e+01
4.060000000000000000e+02 7.700000000000000000e+01
4.070000000000000000e+02 7.700000000000000000e+01
4.080000000000000000e+02 7.700000000000000000e+01
4.090000000000000000e+02 7.700000000000000000e+01
7.480000000000000000e+02 7.700000000000000000e+01
7.490000000000000000e+02 7.700000000000000000e+01
7.500000000000000000e+02 7.700000000000000000e+01
8.930000000000000000e+02 7.700000000000000000e+01
8.940000000000000000e+02 7.700000000000000000e+01
8.950000000000000000e+02 7.700000000000000000e+01
8.960000000000000000e+02 7.700000000000000000e+01
2.350000000000000000e+02 7.800000000000000000e+01
2.360000000000000000e+02 7.800000000000000000e+01
2.370000000000000000e+02 7.800000000000000000e+01
2.380000000000000000e+02 7.800000000000000000e+01
4.040000000000000000e+02 7.800000000000000000e+01
4.050000000000000000e+02 7.800000000000000000e+01
4.060000000000000000e+02 7.800000000000000000e+01
4.070000000000000000e+02 7.800000000000000000e+01
4.080000000000000000e+02 7.800000000000000000e+01
4.090000000000000000e+02 7.800000000000000000e+01
5.520000000000000000e+02 7.800000000000000000e+01
5.530000000000000000e+02 7.800000000000000000e+01
5.540000000000000000e+02 7.800000000000000000e+01
7.480000000000000000e+02 7.800000000000000000e+01
7.490000000000000000e+02 7.800000000000000000e+01
7.500000000000000000e+02 7.800000000000000000e+01
8.930000000000000000e+02 7.800000000000000000e+01
8.940000000000000000e+02 7.800000000000000000e+01
8.950000000000000000e+02 7.800000000000000000e+01
8.960000000000000000e+02 7.800000000000000000e+01
2.340000000000000000e+02 7.900000000000000000e+01
2.350000000000000000e+02 7.900000000000000000e+01
2.360000000000000000e+02 7.900000000000000000e+01
2.370000000000000000e+02 7.900000000000000000e+01
2.380000000000000000e+02 7.900000000000000000e+01
4.040000000000000000e+02 7.900000000000000000e+01
4.050000000000000000e+02 7.900000000000000000e+01
4.060000000000000000e+02 7.900000000000000000e+01
4.070000000000000000e+02 7.900000000000000000e+01
4.080000000000000000e+02 7.900000000000000000e+01
4.090000000000000000e+02 7.900000000000000000e+01
5.520000000000000000e+02 7.900000000000000000e+01
5.530000000000000000e+02 7.900000000000000000e+01
5.540000000000000000e+02 7.900000000000000000e+01
7.480000000000000000e+02 7.900000000000000000e+01
7.490000000000000000e+02 7.900000000000000000e+01
7.500000000000000000e+02 7.900000000000000000e+01
7.510000000000000000e+02 7.900000000000000000e+01
8.930000000000000000e+02 7.900000000000000000e+01
8.940000000000000000e+02 7.900000000000000000e+01
8.950000000000000000e+02 7.900000000000000000e+01
8.960000000000000000e+02 7.900000000000000000e+01
6.200000000000000000e+01 8.000000000000000000e+01
6.300000000000000000e+01 8.000000000000000000e+01
2.340000000000000000e+02 8.000000000000000000e+01
2.350000000000000000e+02 8.000000000000000000e+01
2.360000000000000000e+02 8.000000000000000000e+01
2.370000000000000000e+02 8.000000000000000000e+01
2.380000000000000000e+02 8.000000000000000000e+01
4.040000000000000000e+02 8.000000000000000000e+01
4.050000000000000000e+02 8.000000000000000000e+01
4.060000000000000000e+02 8.000000000000000000e+01
4.070000000000000000e+02 8.000000000000000000e+01
4.080000000000000000e+02 8.000000000000000000e+01
4.090000000000000000e+02 8.000000000000000000e+01
5.520000000000000000e+02 8.000000000000000000e+01
5.530000000000000000e+02 8.000000000000000000e+01
5.540000000000000000e+02 8.000000000000000000e+01
5.550000000000000000e+02 8.000000000000000000e+01
7.480000000000000000e+02 8.000000000000000000e+01
7.490000000000000000e+02 8.000000000000000000e+01
7.500000000000000000e+02 8.000000000000000000e+01
7.510000000000000000e+02 8.000000000000000000e+01
8.930000000000000000e+02 8.000000000000000000e+01
8.940000000000000000e+02 8.000000000000000000e+01
8.950000000000000000e+02 8.000000000000000000e+01
8.960000000000000000e+02 8.000000000000000000e+01
6.100000000000000000e+01 8.100000000000000000e+01
6.200000000000000000e+01 8.100000000000000000e+01
6.300000000000000000e+01 8.100000000000000000e+01
2.340000000000000000e+02 8.100000000000000000e+01
2.350000000000000000e+02 8.100000000000000000e+01
2.360000000000000000e+02 8.100000000000000000e+01
2.370000000000000000e+02 8.100000000000000000e+01
2.380000000000000000e+02 8.100000000000000000e+01
4.040000000000000000e+02 8.100000000000000000e+01
4.050000000000000000e+02 8.100000000000000000e+01
4.060000000000000000e+02 8.100000000000000000e+01
4.070000000000000000e+02 8.100000000000000000e+01
4.080000000000000000e+02 8.100000000000000000e+01
4.090000000000000000e+02 8.100000000000000000e+01
5.520000000000000000e+02 8.100000000000000000e+01
5.530000000000000000e+02 8.100000000000000000e+01
5.540000000000000000e+02 8.100000000000000000e+01
5.550000000000000000e+02 8.100000000000000000e+01
7.480000000000000000e+02 8.100000000000000000e+01
7.490000000000000000e+02 8.100000000000000000e+01
7.500000000000000000e+02 8.100000000000000000e+01
7.510000000000000000e+02 8.100000000000000000e+01
8.930000000000000000e+02 8.100000000000000000e+01
8.940000000000000000e+02 8.100000000000000000e+01
8.950000000000000000e+02 8.100000000000000000e+01
8.960000000000000000e+02 8.100000000000000000e+01
8.970000000000000000e+02 8.100000000000000000e+01
6.100000000000000000e+01 8.200000000000000000e+01
6.200000000000000000e+01 8.200000000000000000e+01
6.300000000000000000e+01 8.200000000000000000e+01
2.340000000000000000e+02 8.200000000000000000e+01
2.350000000000000000e+02 8.200000000000000000e+01
2.360000000000000000e+02 8.200000000000000000e+01
2.370000000000000000e+02 8.200000000000000000e+01
2.380000000000000000e+02 8.200000000000000000e+01
4.040000000000000000e+02 8.200000000000000000e+01
4.050000000000000000e+02 8.200000000000000000e+01
4.060000000000000000e+02 8.200000000000000000e+01
4.070000000000000000e+02 8.200000000000000000e+01
4.080000000000000000e+02 8.200000000000000000e+01
4.090000000000000000e+02 8.200000000000000000e+01
5.520000000000000000e+02 8.200000000000000000e+01
5.530000000000000000e+02 8.200000000000000000e+01
5.540000000000000000e+02 8.200000000000000000e+01
5.550000000000000000e+02 8.200000000000000000e+01
7.470000000000000000e+02 8.200000000000000000e+01
7.480000000000000000e+02 8.200000000000000000e+01
7.490000000000000000e+02 8.200000000000000000e+01
7.500000000000000000e+02 8.200000000000000000e+01
7.510000000000000000e+02 8.200000000000000000e+01
8.930000000000000000e+02 8.200000000000000000e+01
8.940000000000000000e+02 8.200000000000000000e+01
8.950000000000000000e+02 8.200000000000000000e+01
8.960000000000000000e+02 8.200000000000000000e+01
8.970000000000000000e+02 8.200000000000000000e+01
6.100000000000000000e+01 8.300000000000000000e+01
6.200000000000000000e+01 8.300000000000000000e+01
6.300000000000000000e+01 8.300000000000000000e+01
6.400000000000000000e+01 8.300000000000000000e+01
2.340000000000000000e+02 8.300000000000000000e+01
2.350000000000000000e+02 8.300000000000000000e+01
2.360000000000000000e+02 8.300000000000000000e+01
2.370000000000000000e+02 8.300000000000000000e+01
2.380000000000000000e+02 8.300000000000000000e+01
4.040000000000000000e+02 8.300000000000000000e+01
4.050000000000000000e+02 8.300000000000000000e+01
4.060000000000000000e+02 8.300000000000000000e+01
4.070000000000000000e+02 8.300000000000000000e+01
4.080000000000000000e+02 8.300000000000000000e+01
4.090000000000000000e+02 8.300000000000000000e+01
5.520000000000000000e+02 8.300000000000000000e+01
5.530000000000000000e+02 8.300000000000000000e+01
5.540000000000000000e+02 8.300000000000000000e+01
5.550000000000000000e+02 8.300000000000000000e+01
7.470000000000000000e+02 8.300000000000000000e+01
7.480000000000000000e+02 8.300000000000000000e+01
7.490000000000000000e+02 8.300000000000000000e+01
7.500000000000000000e+02 8.300000000000000000e+01
7.510000000000000000e+02 8.300000000000000000e+01
8.930000000000000000e+02 8.300000000000000000e+01
8.940000000000000000e+02 8.300000000000000000e+01
8.950000000000000000e+02 8.300000000000000000e+01
8.960000000000000000e+02 8.300000000000000000e+01
8.970000000000000000e+02 8.300000000000000000e+01
6.100000000000000000e+01 8.400000000000000000e+01
6.200000000000000000e+01 8.400000000000000000e+01
6.300000000000000000e+01 8.400000000000000000e+01
6.400000000000000000e+01 8.400000000000000000e+01
2.340000000000000000e+02 8.400000000000000000e+01
2.350000000000000000e+02 8.400000000000000000e+01
2.360000000000000000e+02 8.400000000000000000e+01
2.370000000000000000e+02 8.400000000000000000e+01
2.380000000000000000e+02 8.400000000000000000e+01
4.040000000000000000e+02 8.400000000000000000e+01
4.050000000000000000e+02 8.400000000000000000e+01
4.060000000000000000e+02 8.400000000000000000e+01
4.070000000000000000e+02 8.400000000000000000e+01
4.080000000000000000e+02 8.400000000000000000e+01
4.090000000000000000e+02 8.400000000000000000e+01
5.520000000000000000e+02 8.400000000000000000e+01
5.530000000000000000e+02 8.400000000000000000e+01
5.540000000000000000e+02 8.400000000000000000e+01
5.550000000000000000e+02 8.400000000000000000e+01
7.470000000000000000e+02 8.400000000000000000e+01
7.480000000000000000e+02 8.400000000000000000e+01
7.490000000000000000e+02 8.400000000000000000e+01
7.500000000000000000e+02 8.400000000000000000e+01
7.510000000000000000e+02 8.400000000000000000e+01
8.930000000000000000e+02 8.400000000000000000e+01
8.940000000000000000e+02 8.400000000000000000e+01
8.950000000000000000e+02 8.400000000000000000e+01
8.960000000000000000e+02 8.400000000000000000e+01
8.970000000000000000e+02 8.400000000000000000e+01
6.100000000000000000e+01 8.500000000000000000e+01
6.200000000000000000e+01 8.500000000000000000e+01
6.300000000000000000e+01 8.500000000000000000e+01
6.400000000000000000e+01 8.500000000000000000e+01
2.340000000000000000e+02 8.500000000000000000e+01
2.350000000000000000e+02 8.500000000000000000e+01
2.360000000000000000e+02 8.500000000000000000e+01
2.370000000000000000e+02 8.500000000000000000e+01
2.380000000000000000e+02 8.500000000000000000e+01
4.040000000000000000e+02 8.500000000000000000e+01
4.050000000000000000e+02 8.500000000000000000e+01
4.060000000000000000e+02 8.500000000000000000e+01
4.070000000000000000e+02 8.500000000000000000e+01
4.080000000000000000e+02 8.500000000000000000e+01
4.090000000000000000e+02 8.500000000000000000e+01
5.510000000000000000e+02 8.500000000000000000e+01
5.520000000000000000e+02 8.500000000000000000e+01
5.530000000000000000e+02 8.500000000000000000e+01
5.540000000000000000e+02 8.500000000000000000e+01
5.550000000000000000e+02 8.500000000000000000e+01
7.470000000000000000e+02 8.500000000000000000e+01
7.480000000000000000e+02 8.500000000000000000e+01
7.490000000000000000e+02 8.500000000000000000e+01
7.500000000000000000e+02 8.500000000000000000e+01
7.510000000000000000e+02 8.500000000000000000e+01
8.930000000000000000e+02 8.500000000000000000e+01
8.940000000000000000e+02 8.500000000000000000e+01
8.950000000000000000e+02 8.500000000000000000e+01
8.960000000000000000e+02 8.500000000000000000e+01
8.970000000000000000e+02 8.500000000000000000e+01
6.000000000000000000e+01 8.600000000000000000e+01
6.100000000000000000e+01 8.600000000000000000e+01
6.200000000000000000e+01 8.600000000000000000e+01
6.300000000000000000e+01 8.600000000000000000e+01
6.400000000000000000e+01 8.600000000000000000e+01
2.340000000000000000e+02 8.600000000000000000e+01
2.350000000000000000e+02 8.600000000000000000e+01
2.360000000000000000e+02 8.600000000000000000e+01
2.370000000000000000e+02 8.600000000000000000e+01
2.380000000000000000e+02 8.600000000000000000e+01
4.030000000000000000e+02 8.600000000000000000e+01
4.040000000000000000e+02 8.600000000000000000e+01
4.050000000000000000e+02 8.600000000000000000e+01
4.060000000000000000e+02 8.600000000000000000e+01
4.070000000000000000e+02 8.600000000000000000e+01
4.080000000000000000e+02 8.600000000000000000e+01
4.090000000000000000e+02 8.600000000000000000e+01
5.510000000000000000e+02 8.600000000000000000e+01
5.520000000000000000e+02 8.600000000000000000e+01
5.530000000000000000e+02 8.600000000000000000e+01
5.540000000000000000e+02 8.600000000000000000e+01
5.550000000000000000e+02 8.600000000000000000e+01
7.470000000000000000e+02 8.600000000000000000e+01
7.480000000000000000e+02 8.600000000000000000e+01
7.490000000000000000e+02 8.600000000000000000e+01
7.500000000000000000e+02 8.600000000000000000e+01
7.510000000000000000e+02 8.600000000000000000e+01
8.920000000000000000e+02 8.600000000000000000e+01
8.930000000000000000e+02 8.600000000000000000e+01
8.940000000000000000e+02 8.600000000000000000e+01
8.950000000000000000e+02 8.600000000000000000e+01
8.960000000000000000e+02 8.600000000000000000e+01
8.970000000000000000e+02 8.600000000000000000e+01
6.000000000000000000e+01 8.700000000000000000e+01
6.100000000000000000e+01 8.700000000000000000e+01
6.200000000000000000e+01 8.700000000000000000e+01
6.300000000000000000e+01 8.700000000000000000e+01
6.400000000000000000e+01 8.700000000000000000e+01
2.340000000000000000e+02 8.700000000000000000e+01
2.350000000000000000e+02 8.700000000000000000e+01
2.360000000000000000e+02 8.700000000000000000e+01
2.370000000000000000e+02 8.700000000000000000e+01
2.380000000000000000e+02 8.700000000000000000e+01
4.030000000000000000e+02 8.700000000000000000e+01
4.040000000000000000e+02 8.700000000000000000e+01
4.050000000000000000e+02 8.700000000000000000e+01
4.060000000000000000e+02 8.700000000000000000e+01
4.070000000000000000e+02 8.700000000000000000e+01
4.080000000000000000e+02 8.700000000000000000e+01
4.090000000000000000e+02 8.700000000000000000e+01
5.510000000000000000e+02 8.700000000000000000e+01
5.520000000000000000e+02 8.700000000000000000e+01
5.530000000000000000e+02 8.700000000000000000e+01
5.540000000000000000e+02 8.700000000000000000e+01
5.550000000000000000e+02 8.700000000000000000e+01
7.470000000000000000e+02 8.700000000000000000e+01
7.480000000000000000e+02 8.700000000000000000e+01
7.490000000000000000e+02 8.700000000000000000e+01
7.500000000000000000e+02 8.700000000000000000e+01
7.510000000000000000e+02 8.700000000000000000e+01
8.920000000000000000e+02 8.700000000000000000e+01
8.930000000000000000e+02 8.700000000000000000e+01
8.940000000000000000e+02 8.700000000000000000e+01
8.950000000000000000e+02 8.700000000000000000e+01
8.960000000000000000e+02 8.700000000000000000e+01
8.970000000000000000e+02 8.700000000000000000e+01
6.000000000000000000e+01 8.800000000000000000e+01
6.100000000000000000e+01 8.800000000000000000e+01
6.200000000000000000e+01 8.800000000000000000e+01
6.300000000000000000e+01 8.800000000000000000e+01
6.400000000000000000e+01 8.800000000000000000e+01
2.340000000000000000e+02 8.800000000000000000e+01
2.350000000000000000e+02 8.800000000000000000e+01
2.360000000000000000e+02 8.800000000000000000e+01
2.370000000000000000e+02 8.800000000000000000e+01
2.380000000000000000e+02 8.800000000000000000e+01
4.030000000000000000e+02 8.800000000000000000e+01
4.040000000000000000e+02 8.800000000000000000e+01
4.050000000000000000e+02 8.800000000000000000e+01
4.060000000000000000e+02 8.800000000000000000e+01
4.070000000000000000e+02 8.800000000000000000e+01
4.080000000000000000e+02 8.800000000000000000e+01
4.090000000000000000e+02 8.800000000000000000e+01
5.510000000000000000e+02 8.800000000000000000e+01
5.520000000000000000e+02 8.800000000000000000e+01
5.530000000000000000e+02 8.800000000000000000e+01
5.540000000000000000e+02 8.800000000000000000e+01
5.550000000000000000e+02 8.800000000000000000e+01
7.470000000000000000e+02 8.800000000000000000e+01
7.480000000000000000e+02 8.800000000000000000e+01
7.490000000000000000e+02 8.800000000000000000e+01
7.500000000000000000e+02 8.800000000000000000e+01
7.510000000000000000e+02 8.800000000000000000e+01
8.920000000000000000e+02 8.800000000000000000e+01
8.930000000000000000e+02 8.800000000000000000e+01
8.940000000000000000e+02 8.800000000000000000e+01
8.950000000000000000e+02 8.800000000000000000e+01
8.960000000000000000e+02 8.800000000000000000e+01
8.970000000000000000e+02 8.800000000000000000e+01
6.000000000000000000e+01 8.900000000000000000e+01
6.100000000000000000e+01 8.900000000000000000e+01
6.200000000000000000e+01 8.900000000000000000e+01
6.300000000000000000e+01 8.900000000000000000e+01
6.400000000000000000e+01 8.900000000000000000e+01
2.340000000000000000e+02 8.900000000000000000e+01
2.350000000000000000e+02 8.900000000000000000e+01
2.360000000000000000e+02 8.900000000000000000e+01
2.370000000000000000e+02 8.900000000000000000e+01
2.380000000000000000e+02 8.900000000000000000e+01
2.390000000000000000e+02 8.900000000000000000e+01
4.030000000000000000e+02 8.900000000000000000e+01
4.040000000000000000e+02 8.900000000000000000e+01
4.050000000000000000e+02 8.900000000000000000e+01
4.060000000000000000e+02 8.900000000000000000e+01
4.070000000000000000e+02 8.900000000000000000e+01
4.080000000000000000e+02 8.900000000000000000e+01
4.090000000000000000e+02 8.900000000000000000e+01
5.510000000000000000e+02 8.900000000000000000e+01
5.520000000000000000e+02 8.900000000000000000e+01
5.530000000000000000e+02 8.900000000000000000e+01
5.540000000000000000e+02 8.900000000000000000e+01
5.550000000000000000e+02 8.900000000000000000e+01
7.470000000000000000e+02 8.900000000000000000e+01
7.480000000000000000e+02 8.900000000000000000e+01
7.490000000000000000e+02 8.900000000000000000e+01
7.500000000000000000e+02 8.900000000000000000e+01
7.510000000000000000e+02 8.900000000000000000e+01
8.920000000000000000e+02 8.900000000000000000e+01
8.930000000000000000e+02 8.900000000000000000e+01
8.940000000000000000e+02 8.900000000000000000e+01
8.950000000000000000e+02 8.900000000000000000e+01
8.960000000000000000e+02 8.900000000000000000e+01
8.970000000000000000e+02 8.900000000000000000e+01
6.000000000000000000e+01 9.000000000000000000e+01
6.100000000000000000e+01 9.000000000000000000e+01
6.200000000000000000e+01 9.000000000000000000e+01
6.300000000000000000e+01 9.000000000000000000e+01
6.400000000000000000e+01 9.000000000000000000e+01
2.340000000000000000e+02 9.000000000000000000e+01
2.350000000000000000e+02 9.000000000000000000e+01
2.360000000000000000e+02 9.000000000000000000e+01
2.370000000000000000e+02 9.000000000000000000e+01
2.380000000000000000e+02 9.000000000000000000e+01
2.390000000000000000e+02 9.000000000000000000e+01
4.030000000000000000e+02 9.000000000000000000e+01
4.040000000000000000e+02 9.000000000000000000e+01
4.050000000000000000e+02 9.000000000000000000e+01
4.060000000000000000e+02 9.000000000000000000e+01
4.070000000000000000e+02 9.000000000000000000e+01
4.080000000000000000e+02 9.000000000000000000e+01
4.090000000000000000e+02 9.000000000000000000e+01
5.510000000000000000e+02 9.000000000000000000e+01
5.520000000000000000e+02 9.000000000000000000e+01
5.530000000000000000e+02 9.000000000000000000e+01
5.540000000000000000e+02 9.000000000000000000e+01
5.550000000000000000e+02 9.000000000000000000e+01
7.470000000000000000e+02 9.000000000000000000e+01
7.480000000000000000e+02 9.000000000000000000e+01
7.490000000000000000e+02 9.000000000000000000e+01
7.500000000000000000e+02 9.000000000000000000e+01
7.510000000000000000e+02 9.000000000000000000e+01
8.920000000000000000e+02 9.000000000000000000e+01
8.930000000000000000e+02 9.000000000000000000e+01
8.940000000000000000e+02 9.000000000000000000e+01
8.950000000000000000e+02 9.000000000000000000e+01
8.960000000000000000e+02 9.000000000000000000e+01
8.970000000000000000e+02 9.000000000000000000e+01
6.000000000000000000e+01 9.100000000000000000e+01
6.100000000000000000e+01 9.100000000000000000e+01
6.200000000000000000e+01 9.100000000000000000e+01
6.300000000000000000e+01 9.100000000000000000e+01
6.400000000000000000e+01 9.100000000000000000e+01
2.340000000000000000e+02 9.100000000000000000e+01
2.350000000000000000e+02 9.100000000000000000e+01
2.360000000000000000e+02 9.100000000000000000e+01
2.370000000000000000e+02 9.100000000000000000e+01
2.380000000000000000e+02 9.100000000000000000e+01
2.390000000000000000e+02 9.100000000000000000e+01
4.030000000000000000e+02 9.100000000000000000e+01
4.040000000000000000e+02 9.100000000000000000e+01
4.050000000000000000e+02 9.100000000000000000e+01
4.070000000000000000e+02 9.100000000000000000e+01
4.080000000000000000e+02 9.100000000000000000e+01
4.090000000000000000e+02 9.100000000000000000e+01
5.510000000000000000e+02 9.100000000000000000e+01
5.520000000000000000e+02 9.100000000000000000e+01
5.530000000000000000e+02 9.100000000000000000e+01
5.540000000000000000e+02 9.100000000000000000e+01
5.550000000000000000e+02 9.100000000000000000e+01
7.470000000000000000e+02 9.100000000000000000e+01
7.480000000000000000e+02 9.100000000000000000e+01
7.490000000000000000e+02 9.100000000000000000e+01
7.500000000000000000e+02 9.100000000000000000e+01
7.510000000000000000e+02 9.100000000000000000e+01
8.920000000000000000e+02 9.100000000000000000e+01
8.930000000000000000e+02 9.100000000000000000e+01
8.940000000000000000e+02 9.100000000000000000e+01
8.950000000000000000e+02 9.100000000000000000e+01
8.960000000000000000e+02 9.100000000000000000e+01
8.970000000000000000e+02 9.100000000000000000e+01
6.000000000000000000e+01 9.200000000000000000e+01
6.100000000000000000e+01 9.200000000000000000e+01
6.200000000000000000e+01 9.200000000000000000e+01
6.300000000000000000e+01 9.200000000000000000e+01
6.400000000000000000e+01 9.200000000000000000e+01
2.340000000000000000e+02 9.200000000000000000e+01
2.350000000000000000e+02 9.200000000000000000e+01
2.360000000000000000e+02 9.200000000000000000e+01
2.370000000000000000e+02 9.200000000000000000e+01
2.380000000000000000e+02 9.200000000000000000e+01
2.390000000000000000e+02 9.200000000000000000e+01
4.030000000000000000e+02 9.200000000000000000e+01
4.040000000000000000e+02 9.200000000000000000e+01
4.050000000000000000e+02 9.200000000000000000e+01
4.070000000000000000e+02 9.200000000000000000e+01
4.080000000000000000e+02 9.200000000000000000e+01
4.090000000000000000e+02 9.200000000000000000e+01
5.510000000000000000e+02 9.200000000000000000e+01
5.520000000000000000e+02 9.200000000000000000e+01
5.530000000000000000e+02 9.200000000000000000e+01
5.540000000000000000e+02 9.200000000000000000e+01
5.550000000000000000e+02 9.200000000000000000e+01
7.470000000000000000e+02 9.200000000000000000e+01
7.480000000000000000e+02 9.200000000000000000e+01
7.490000000000000000e+02 9.200000000000000000e+01
7.500000000000000000e+02 9.200000000000000000e+01
7.510000000000000000e+02 9.200000000000000000e+01
8.920000000000000000e+02 9.200000000000000000e+01
8.930000000000000000e+02 9.200000000000000000e+01
8.940000000000000000e+02 9.200000000000000000e+01
8.950000000000000000e+02 9.200000000000000000e+01
8.960000000000000000e+02 9.200000000000000000e+01
8.970000000000000000e+02 9.200000000000000000e+01
6.000000000000000000e+01 9.300000000000000000e+01
6.100000000000000000e+01 9.300000000000000000e+01
6.200000000000000000e+01 9.300000000000000000e+01
6.300000000000000000e+01 9.300000000000000000e+01
6.400000000000000000e+01 9.300000000000000000e+01
2.340000000000000000e+02 9.300000000000000000e+01
2.350000000000000000e+02 9.300000000000000000e+01
2.360000000000000000e+02 9.300000000000000000e+01
2.370000000000000000e+02 9.300000000000000000e+01
2.380000000000000000e+02 9.300000000000000000e+01
2.390000000000000000e+02 9.300000000000000000e+01
4.030000000000000000e+02 9.300000000000000000e+01
4.040000000000000000e+02 9.300000000000000000e+01
4.050000000000000000e+02 9.300000000000000000e+01
4.070000000000000000e+02 9.300000000000000000e+01
4.080000000000000000e+02 9.300000000000000000e+01
4.090000000000000000e+02 9.300000000000000000e+01
5.510000000000000000e+02 9.300000000000000000e+01
5.520000000000000000e+02 9.300000000000000000e+01
5.530000000000000000e+02 9.300000000000000000e+01
5.540000000000000000e+02 9.300000000000000000e+01
5.550000000000000000e+02 9.300000000000000000e+01
7.470000000000000000e+02 9.300000000000000000e+01
7.480000000000000000e+02 9.300000000000000000e+01
7.490000000000000000e+02 9.300000000000000000e+01
7.500000000000000000e+02 9.300000000000000000e+01
7.510000000000000000e+02 9.300000000000000000e+01
8.920000000000000000e+02 9.300000000000000000e+01
8.930000000000000000e+02 9.300000000000000000e+01
8.940000000000000000e+02 9.300000000000000000e+01
8.950000000000000000e+02 9.300000000000000000e+01
8.960000000000000000e+02 9.300000000000000000e+01
8.970000000000000000e+02 9.300000000000000000e+01
6.000000000000000000e+01 9.400000000000000000e+01
6.100000000000000000e+01 9.400000000000000000e+01
6.200000000000000000e+01 9.400000000000000000e+01
6.300000000000000000e+01 9.400000000000000000e+01
6.400000000000000000e+01 9.400000000000000000e+01
2.330000000000000000e+02 9.400000000000000000e+01
2.340000000000000000e+02 9.400000000000000000e+01
2.350000000000000000e+02 9.400000000000000000e+01
2.360000000000000000e+02 9.400000000000000000e+01
2.370000000000000000e+02 9.400000000000000000e+01
2.380000000000000000e+02 9.400000000000000000e+01
2.390000000000000000e+02 9.400000000000000000e+01
4.030000000000000000e+02 9.400000000000000000e+01
4.040000000000000000e+02 9.400000000000000000e+01
4.050000000000000000e+02 9.400000000000000000e+01
4.070000000000000000e+02 9.400000000000000000e+01
4.080000000000000000e+02 9.400000000000000000e+01
4.090000000000000000e+02 9.400000000000000000e+01
5.510000000000000000e+02 9.400000000000000000e+01
5.520000000000000000e+02 9.400000000000000000e+01
5.530000000000000000e+02 9.400000000000000000e+01
5.540000000000000000e+02 9.400000000000000000e+01
5.550000000000000000e+02 9.400000000000000000e+01
7.460000000000000000e+02 9.400000000000000000e+01
7.470000000000000000e+02 9.400000000000000000e+01
7.480000000000000000e+02 9.400000000000000000e+01
7.490000000000000000e+02 9.400000000000000000e+01
7.500000000000000000e+02 9.400000000000000000e+01
7.510000000000000000e+02 9.400000000000000000e+01
8.920000000000000000e+02 9.400000000000000000e+01
8.930000000000000000e+02 9.400000000000000000e+01
8.940000000000000000e+02 9.400000000000000000e+01
8.950000000000000000e+02 9.400000000000000000e+01
8.960000000000000000e+02 9.400000000000000000e+01
8.970000000000000000e+02 9.400000000000000000e+01
6.000000000000000000e+01 9.500000000000000000e+01
6.100000000000000000e+01 9.500000000000000000e+01
6.200000000000000000e+01 9.500000000000000000e+01
6.300000000000000000e+01 9.500000000000000000e+01
6.400000000000000000e+01 9.500000000000000000e+01
2.330000000000000000e+02 9.500000000000000000e+01
2.340000000000000000e+02 9.500000000000000000e+01
2.350000000000000000e+02 9.500000000000000000e+01
2.360000000000000000e+02 9.500000000000000000e+01
2.370000000000000000e+02 9.500000000000000000e+01
2.380000000000000000e+02 9.500000000000000000e+01
2.390000000000000000e+02 9.500000000000000000e+01
4.030000000000000000e+02 9.500000000000000000e+01
4.040000000000000000e+02 9.500000000000000000e+01
4.050000000000000000e+02 9.500000000000000000e+01
4.070000000000000000e+02 9.500000000000000000e+01
4.080000000000000000e+02 9.500000000000000000e+01
4.090000000000000000e+02 9.500000000000000000e+01
5.510000000000000000e+02 9.500000000000000000e+01
5.520000000000000000e+02 9.500000000000000000e+01
5.530000000000000000e+02 9.500000000000000000e+01
5.540000000000000000e+02 9.500000000000000000e+01
5.550000000000000000e+02 9.500000000000000000e+01
7.460000000000000000e+02 9.500000000000000000e+01
7.470000000000000000e+02 9.500000000000000000e+01
7.480000000000000000e+02 9.500000000000000000e+01
7.490000000000000000e+02 9.500000000000000000e+01
7.500000000000000000e+02 9.500000000000000000e+01
7.510000000000000000e+02 9.500000000000000000e+01
8.920000000000000000e+02 9.500000000000000000e+01
8.930000000000000000e+02 9.500000000000000000e+01
8.940000000000000000e+02 9.500000000000000000e+01
8.950000000000000000e+02 9.500000000000000000e+01
8.960000000000000000e+02 9.500000000000000000e+01
8.970000000000000000e+02 9.500000000000000000e+01
6.000000000000000000e+01 9.600000000000000000e+01
6.100000000000000000e+01 9.600000000000000000e+01
6.200000000000000000e+01 9.600000000000000000e+01
6.300000000000000000e+01 9.600000000000000000e+01
6.400000000000000000e+01 9.600000000000000000e+01
2.330000000000000000e+02 9.600000000000000000e+01
2.340000000000000000e+02 9.600000000000000000e+01
2.350000000000000000e+02 9.600000000000000000e+01
2.360000000000000000e+02 9.600000000000000000e+01
2.370000000000000000e+02 9.600000000000000000e+01
2.380000000000000000e+02 9.600000000000000000e+01
2.390000000000000000e+02 9.600000000000000000e+01
4.030000000000000000e+02 9.600000000000000000e+01
4.040000000000000000e+02 9.600000000000000000e+01
4.050000000000000000e+02 9.600000000000000000e+01
4.070000000000000000e+02 9.600000000000000000e+01
4.080000000000000000e+02 9.600000000000000000e+01
4.090000000000000000e+02 9.600000000000000000e+01
5.510000000000000000e+02 9.600000000000000000e+01
5.520000000000000000e+02 9.600000000000000000e+01
5.530000000000000000e+02 9.600000000000000000e+01
5.540000000000000000e+02 9.600000000000000000e+01
5.550000000000000000e+02 9.600000000000000000e+01
7.460000000000000000e+02 9.600000000000000000e+01
7.470000000000000000e+02 9.600000000000000000e+01
7.480000000000000000e+02 9.600000000000000000e+01
7.490000000000000000e+02 9.600000000000000000e+01
7.500000000000000000e+02 9.600000000000000000e+01
7.510000000000000000e+02 9.600000000000000000e+01
7.520000000000000000e+02 9.600000000000000000e+01
8.920000000000000000e+02 9.600000000000000000e+01
8.930000000000000000e+02 9.600000000000000000e+01
8.940000000000000000e+02 9.600000000000000000e+01
8.950000000000000000e+02 9.600000000000000000e+01
8.960000000000000000e+02 9.600000000000000000e+01
8.970000000000000000e+02 9.600000000000000000e+01
6.000000000000000000e+01 9.700000000000000000e+01
6.100000000000000000e+01 9.700000000000000000e+01
6.200000000000000000e+01 9.700000000000000000e+01
6.300000000000000000e+01 9.700000000000000000e+01
6.400000000000000000e+01 9.700000000000000000e+01
2.330000000000000000e+02 9.700000000000000000e+01
2.340000000000000000e+02 9.700000000000000000e+01
2.350000000000000000e+02 9.700000000000000000e+01
2.360000000000000000e+02 9.700000000000000000e+01
2.370000000000000000e+02 9.700000000000000000e+01
2.380000000000000000e+02 9.700000000000000000e+01
2.390000000000000000e+02 9.700000000000000000e+01
4.030000000000000000e+02 9.700000000000000000e+01
4.040000000000000000e+02 9.700000000000000000e+01
4.050000000000000000e+02 9.700000000000000000e+01
4.070000000000000000e+02 9.700000000000000000e+01
4.080000000000000000e+02 9.700000000000000000e+01
4.090000000000000000e+02 9.700000000000000000e+01
5.510000000000000000e+02 9.700000000000000000e+01
5.520000000000000000e+02 9.700000000000000000e+01
5.530000000000000000e+02 9.700000000000000000e+01
5.540000000000000000e+02 9.700000000000000000e+01
5.550000000000000000e+02 9.700000000000000000e+01
7.460000000000000000e+02 9.700000000000000000e+01
7.470000000000000000e+02 9.700000000000000000e+01
7.480000000000000000e+02 9.700000000000000000e+01
7.490000000000000000e+02 9.700000000000000000e+01
7.500000000000000000e+02 9.700000000000000000e+01
7.510000000000000000e+02 9.700000000000000000e+01
7.520000000000000000e+02 9.700000000000000000e+01
8.920000000000000000e+02 9.700000000000000000e+01
8.930000000000000000e+02 9.700000000000000000e+01
8.940000000000000000e+02 9.700000000000000000e+01
8.950000000000000000e+02 9.700000000000000000e+01
8.960000000000000000e+02 9.700000000000000000e+01
8.970000000000000000e+02 9.700000000000000000e+01
6.000000000000000000e+01 9.800000000000000000e+01
6.100000000000000000e+01 9.800000000000000000e+01
6.200000000000000000e+01 9.800000000000000000e+01
6.300000000000000000e+01 9.800000000000000000e+01
6.400000000000000000e+01 9.800000000000000000e+01
2.330000000000000000e+02 9.800000000000000000e+01
2.340000000000000000e+02 9.800000000000000000e+01
2.350000000000000000e+02 9.800000000000000000e+01
2.360000000000000000e+02 9.800000000000000000e+01
2.370000000000000000e+02 9.800000000000000000e+01
2.380000000000000000e+02 9.800000000000000000e+01
2.390000000000000000e+02 9.800000000000000000e+01
4.030000000000000000e+02 9.800000000000000000e+01
4.040000000000000000e+02 9.800000000000000000e+01
4.050000000000000000e+02 9.800000000000000000e+01
4.070000000000000000e+02 9.800000000000000000e+01
4.080000000000000000e+02 9.800000000000000000e+01
4.090000000000000000e+02 9.800000000000000000e+01
5.500000000000000000e+02 9.800000000000000000e+01
5.510000000000000000e+02 9.800000000000000000e+01
5.520000000000000000e+02 9.800000000000000000e+01
5.530000000000000000e+02 9.800000000000000000e+01
5.540000000000000000e+02 9.800000000000000000e+01
5.550000000000000000e+02 9.800000000000000000e+01
5.560000000000000000e+02 9.800000000000000000e+01
7.460000000000000000e+02 9.800000000000000000e+01
7.470000000000000000e+02 9.800000000000000000e+01
7.480000000000000000e+02 9.800000000000000000e+01
7.490000000000000000e+02 9.800000000000000000e+01
7.500000000000000000e+02 9.800000000000000000e+01
7.510000000000000000e+02 9.800000000000000000e+01
7.520000000000000000e+02 9.800000000000000000e+01
8.920000000000000000e+02 9.800000000000000000e+01
8.930000000000000000e+02 9.800000000000000000e+01
8.940000000000000000e+02 9.800000000000000000e+01
8.950000000000000000e+02 9.800000000000000000e+01
8.960000000000000000e+02 9.800000000000000000e+01
8.970000000000000000e+02 9.800000000000000000e+01
6.000000000000000000e+01 9.900000000000000000e+01
6.100000000000000000e+01 9.900000000000000000e+01
6.200000000000000000e+01 9.900000000000000000e+01
6.300000000000000000e+01 9.900000000000000000e+01
6.400000000000000000e+01 9.900000000000000000e+01
2.330000000000000000e+02 9.900000000000000000e+01
2.340000000000000000e+02 9.900000000000000000e+01
2.350000000000000000e+02 9.900000000000000000e+01
2.360000000000000000e+02 9.900000000000000000e+01
2.370000000000000000e+02 9.900000000000000000e+01
2.380000000000000000e+02 9.900000000000000000e+01
2.390000000000000000e+02 9.900000000000000000e+01
4.030000000000000000e+02 9.900000000000000000e+01
4.040000000000000000e+02 9.900000000000000000e+01
4.050000000000000000e+02 9.900000000000000000e+01
4.070000000000000000e+02 9.900000000000000000e+01
4.080000000000000000e+02 9.900000000000000000e+01
4.090000000000000000e+02 9.900000000000000000e+01
5.500000000000000000e+02 9.900000000000000000e+01
5.510000000000000000e+02 9.900000000000000000e+01
5.520000000000000000e+02 9.900000000000000000e+01
5.530000000000000000e+02 9.900000000000000000e+01
5.540000000000000000e+02 9.900000000000000000e+01
5.550000000000000000e+02 9.900000000000000000e+01
5.560000000000000000e+02 9.900000000000000000e+01
7.460000000000000000e+02 9.900000000000000000e+01
7.470000000000000000e+02 9.900000000000000000e+01
7.480000000000000000e+02 9.900000000000000000e+01
7.490000000000000000e+02 9.900000000000000000e+01
7.500000000000000000e+02 9.900000000000000000e+01
7.510000000000000000e+02 9.900000000000000000e+01
7.520000000000000000e+02 9.900000000000000000e+01
8.920000000000000000e+02 9.900000000000000000e+01
8.930000000000000000e+02 9.900000000000000000e+01
8.940000000000000000e+02 9.900000000000000000e+01
8.950000000000000000e+02 9.900000000000000000e+01
8.960000000000000000e+02 9.900000000000000000e+01
8.970000000000000000e+02 9.900000000000000000e+01
5.900000000000000000e+01 1.000000000000000000e+02
6.000000000000000000e+01 1.000000000000000000e+02
6.100000000000000000e+01 1.000000000000000000e+02
6.200000000000000000e+01 1.000000000000000000e+02
6.300000000000000000e+01 1.000000000000000000e+02
6.400000000000000000e+01 1.000000000000000000e+02
2.330000000000000000e+02 1.000000000000000000e+02
2.340000000000000000e+02 1.000000000000000000e+02
2.350000000000000000e+02 1.000000000000000000e+02
2.370000000000000000e+02 1.000000000000000000e+02
2.380000000000000000e+02 1.000000000000000000e+02
2.390000000000000000e+02 1.000000000000000000e+02
4.030000000000000000e+02 1.000000000000000000e+02
4.040000000000000000e+02 1.000000000000000000e+02
4.050000000000000000e+02 1.000000000000000000e+02
4.070000000000000000e+02 1.000000000000000000e+02
4.080000000000000000e+02 1.000000000000000000e+02
4.090000000000000000e+02 1.000000000000000000e+02
5.500000000000000000e+02 1.000000000000000000e+02
5.510000000000000000e+02 1.000000000000000000e+02
5.520000000000000000e+02 1.000000000000000000e+02
5.530000000000000000e+02 1.000000000000000000e+02
5.540000000000000000e+02 1.000000000000000000e+02
5.550000000000000000e+02 1.000000000000000000e+02
5.560000000000000000e+02 1.000000000000000000e+02
7.460000000000000000e+02 1.000000000000000000e+02
7.470000000000000000e+02 1.000000000000000000e+02
7.480000000000000000e+02 1.000000000000000000e+02
7.500000000000000000e+02 1.000000000000000000e+02
7.510000000000000000e+02 1.000000000000000000e+02
7.520000000000000000e+02 1.000000000000000000e+02
8.920000000000000000e+02 1.000000000000000000e+02
8.930000000000000000e+02 1.000000000000000000e+02
8.940000000000000000e+02 1.000000000000000000e+02
8.950000000000000000e+02 1.000000000000000000e+02
8.960000000000000000e+02 1.000000000000000000e+02
8.970000000000000000e+02 1.000000000000000000e+02
5.900000000000000000e+01 1.010000000000000000e+02
6.000000000000000000e+01 1.010000000000000000e+02
6.100000000000000000e+01 1.010000000000000000e+02
6.200000000000000000e+01 1.010000000000000000e+02
6.300000000000000000e+01 1.010000000000000000e+02
6.400000000000000000e+01 1.010000000000000000e+02
6.500000000000000000e+01 1.010000000000000000e+02
2.330000000000000000e+02 1.010000000000000000e+02
2.340000000000000000e+02 1.010000000000000000e+02
2.350000000000000000e+02 1.010000000000000000e+02
2.370000000000000000e+02 1.010000000000000000e+02
2.380000000000000000e+02 1.010000000000000000e+02
2.390000000000000000e+02 1.010000000000000000e+02
4.030000000000000000e+02 1.010000000000000000e+02
4.040000000000000000e+02 1.010000000000000000e+02
4.050000000000000000e+02 1.010000000000000000e+02
4.070000000000000000e+02 1.010000000000000000e+02
4.080000000000000000e+02 1.010000000000000000e+02
4.090000000000000000e+02 1.010000000000000000e+02
5.500000000000000000e+02 1.010000000000000000e+02
5.510000000000000000e+02 1.010000000000000000e+02
5.520000000000000000e+02 1.010000000000000000e+02
5.530000000000000000e+02 1.010000000000000000e+02
5.540000000000000000e+02 1.010000000000000000e+02
5.550000000000000000e+02 1.010000000000000000e+02
5.560000000000000000e+02 1.010000000000000000e+02
7.460000000000000000e+02 1.010000000000000000e+02
7.470000000000000000e+02 1.010000000000000000e+02
7.480000000000000000e+02 1.010000000000000000e+02
7.500000000000000000e+02 1.010000000000000000e+02
7.510000000000000000e+02 1.010000000000000000e+02
7.520000000000000000e+02 1.010000000000000000e+02
8.920000000000000000e+02 1.010000000000000000e+02
8.930000000000000000e+02 1.010000000000000000e+02
8.940000000000000000e+02 1.010000000000000000e+02
8.950000000000000000e+02 1.010000000000000000e+02
8.960000000000000000e+02 1.010000000000000000e+02
8.970000000000000000e+02 1.010000000000000000e+02
5.900000000000000000e+01 1.020000000000000000e+02
6.000000000000000000e+01 1.020000000000000000e+02
6.100000000000000000e+01 1.020000000000000000e+02
6.200000000000000000e+01 1.020000000000000000e+02
6.300000000000000000e+01 1.020000000000000000e+02
6.400000000000000000e+01 1.020000000000000000e+02
6.500000000000000000e+01 1.020000000000000000e+02
2.330000000000000000e+02 1.020000000000000000e+02
2.340000000000000000e+02 1.020000000000000000e+02
2.350000000000000000e+02 1.020000000000000000e+02
2.370000000000000000e+02 1.020000000000000000e+02
2.380000000000000000e+02 1.020000000000000000e+02
2.390000000000000000e+02 1.020000000000000000e+02
4.030000000000000000e+02 1.020000000000000000e+02
4.040000000000000000e+02 1.020000000000000000e+02
4.050000000000000000e+02 1.020000000000000000e+02
4.070000000000000000e+02 1.020000000000000000e+02
4.080000000000000000e+02 1.020000000000000000e+02
4.090000000000000000e+02 1.020000000000000000e+02
5.500000000000000000e+02 1.020000000000000000e+02
5.510000000000000000e+02 1.020000000000000000e+02
5.520000000000000000e+02 1.020000000000000000e+02
5.530000000000000000e+02 1.020000000000000000e+02
5.540000000000000000e+02 1.020000000000000000e+02
5.550000000000000000e+02 1.020000000000000000e+02
5.560000000000000000e+02 1.020000000000000000e+02
7.460000000000000000e+02 1.020000000000000000e+02
7.470000000000000000e+02 1.020000000000000000e+02
7.480000000000000000e+02 1.020000000000000000e+02
7.500000000000000000e+02 1.020000000000000000e+02
7.510000000000000000e+02 1.020000000000000000e+02
7.520000000000000000e+02 1.020000000000000000e+02
8.910000000000000000e+02 1.020000000000000000e+02
8.920000000000000000e+02 1.020000000000000000e+02
8.930000000000000000e+02 1.020000000000000000e+02
8.940000000000000000e+02 1.020000000000000000e+02
8.950000000000000000e+02 1.020000000000000000e+02
8.960000000000000000e+02 1.020000000000000000e+02
8.970000000000000000e+02 1.020000000000000000e+02
5.900000000000000000e+01 1.030000000000000000e+02
6.000000000000000000e+01 1.030000000000000000e+02
6.100000000000000000e+01 1.030000000000000000e+02
6.200000000000000000e+01 1.030000000000000000e+02
6.300000000000000000e+01 1.030000000000000000e+02
6.400000000000000000e+01 1.030000000000000000e+02
6.500000000000000000e+01 1.030000000000000000e+02
2.330000000000000000e+02 1.030000000000000000e+02
2.340000000000000000e+02 1.030000000000000000e+02
2.350000000000000000e+02 1.030000000000000000e+02
2.370000000000000000e+02 1.030000000000000000e+02
2.380000000000000000e+02 1.030000000000000000e+02
2.390000000000000000e+02 1.030000000000000000e+02
4.030000000000000000e+02 1.030000000000000000e+02
4.040000000000000000e+02 1.030000000000000000e+02
4.050000000000000000e+02 1.030000000000000000e+02
4.070000000000000000e+02 1.030000000000000000e+02
4.080000000000000000e+02 1.030000000000000000e+02
4.090000000000000000e+02 1.030000000000000000e+02
5.500000000000000000e+02 1.030000000000000000e+02
5.510000000000000000e+02 1.030000000000000000e+02
5.520000000000000000e+02 1.030000000000000000e+02
5.540000000000000000e+02 1.030000000000000000e+02
5.550000000000000000e+02 1.030000000000000000e+02
5.560000000000000000e+02 1.030000000000000000e+02
7.460000000000000000e+02 1.030000000000000000e+02
7.470000000000000000e+02 1.030000000000000000e+02
7.480000000000000000e+02 1.030000000000000000e+02
7.500000000000000000e+02 1.030000000000000000e+02
7.510000000000000000e+02 1.030000000000000000e+02
7.520000000000000000e+02 1.030000000000000000e+02
8.910000000000000000e+02 1.030000000000000000e+02
8.920000000000000000e+02 1.030000000000000000e+02
8.930000000000000000e+02 1.030000000000000000e+02
8.940000000000000000e+02 1.030000000000000000e+02
8.950000000000000000e+02 1.030000000000000000e+02
8.960000000000000000e+02 1.030000000000000000e+02
8.970000000000000000e+02 1.030000000000000000e+02
5.900000000000000000e+01 1.040000000000000000e+02
6.000000000000000000e+01 1.040000000000000000e+02
6.100000000000000000e+01 1.040000000000000000e+02
6.200000000000000000e+01 1.040000000000000000e+02
6.300000000000000000e+01 1.040000000000000000e+02
6.400000000000000000e+01 1.040000000000000000e+02
6.500000000000000000e+01 1.040000000000000000e+02
2.330000000000000000e+02 1.040000000000000000e+02
2.340000000000000000e+02 1.040000000000000000e+02
2.350000000000000000e+02 1.040000000000000000e+02
2.370000000000000000e+02 1.040000000000000000e+02
2.380000000000000000e+02 1.040000000000000000e+02
2.390000000000000000e+02 1.040000000000000000e+02
4.030000000000000000e+02 1.040000000000000000e+02
4.040000000000000000e+02 1.040000000000000000e+02
4.050000000000000000e+02 1.040000000000000000e+02
4.070000000000000000e+02 1.040000000000000000e+02
4.080000000000000000e+02 1.040000000000000000e+02
4.090000000000000000e+02 1.040000000000000000e+02
5.500000000000000000e+02 1.040000000000000000e+02
5.510000000000000000e+02 1.040000000000000000e+02
5.520000000000000000e+02 1.040000000000000000e+02
5.540000000000000000e+02 1.040000000000000000e+02
5.550000000000000000e+02 1.040000000000000000e+02
5.560000000000000000e+02 1.040000000000000000e+02
7.460000000000000000e+02 1.040000000000000000e+02
7.470000000000000000e+02 1.040000000000000000e+02
7.480000000000000000e+02 1.040000000000000000e+02
7.500000000000000000e+02 1.040000000000000000e+02
7.510000000000000000e+02 1.040000000000000000e+02
7.520000000000000000e+02 1.040000000000000000e+02
8.910000000000000000e+02 1.040000000000000000e+02
8.920000000000000000e+02 1.040000000000000000e+02
8.930000000000000000e+02 1.040000000000000000e+02
8.940000000000000000e+02 1.040000000000000000e+02
8.950000000000000000e+02 1.040000000000000000e+02
8.960000000000000000e+02 1.040000000000000000e+02
8.970000000000000000e+02 1.040000000000000000e+02
5.900000000000000000e+01 1.050000000000000000e+02
6.000000000000000000e+01 1.050000000000000000e+02
6.100000000000000000e+01 1.050000000000000000e+02
6.300000000000000000e+01 1.050000000000000000e+02
6.400000000000000000e+01 1.050000000000000000e+02
6.500000000000000000e+01 1.050000000000000000e+02
2.330000000000000000e+02 1.050000000000000000e+02
2.340000000000000000e+02 1.050000000000000000e+02
2.350000000000000000e+02 1.050000000000000000e+02
2.370000000000000000e+02 1.050000000000000000e+02
2.380000000000000000e+02 1.050000000000000000e+02
2.390000000000000000e+02 1.050000000000000000e+02
4.030000000000000000e+02 1.050000000000000000e+02
4.040000000000000000e+02 1.050000000000000000e+02
4.050000000000000000e+02 1.050000000000000000e+02
4.070000000000000000e+02 1.050000000000000000e+02
4.080000000000000000e+02 1.050000000000000000e+02
4.090000000000000000e+02 1.050000000000000000e+02
5.500000000000000000e+02 1.050000000000000000e+02
5.510000000000000000e+02 1.050000000000000000e+02
5.520000000000000000e+02 1.050000000000000000e+02
5.540000000000000000e+02 1.050000000000000000e+02
5.550000000000000000e+02 1.050000000000000000e+02
5.560000000000000000e+02 1.050000000000000000e+02
7.460000000000000000e+02 1.050000000000000000e+02
7.470000000000000000e+02 1.050000000000000000e+02
7.480000000000000000e+02 1.050000000000000000e+02
7.500000000000000000e+02 1.050000000000000000e+02
7.510000000000000000e+02 1.050000000000000000e+02
7.520000000000000000e+02 1.050000000000000000e+02
8.910000000000000000e+02 1.050000000000000000e+02
8.920000000000000000e+02 1.050000000000000000e+02
8.930000000000000000e+02 1.050000000000000000e+02
8.940000000000000000e+02 1.050000000000000000e+02
8.950000000000000000e+02 1.050000000000000000e+02
8.960000000000000000e+02 1.050000000000000000e+02
8.970000000000000000e+02 1.050000000000000000e+02
5.900000000000000000e+01 1.060000000000000000e+02
6.000000000000000000e+01 1.060000000000000000e+02
6.100000000000000000e+01 1.060000000000000000e+02
6.300000000000000000e+01 1.060000000000000000e+02
6.400000000000000000e+01 1.060000000000000000e+02
6.500000000000000000e+01 1.060000000000000000e+02
2.330000000000000000e+02 1.060000000000000000e+02
2.340000000000000000e+02 1.060000000000000000e+02
2.350000000000000000e+02 1.060000000000000000e+02
2.370000000000000000e+02 1.060000000000000000e+02
2.380000000000000000e+02 1.060000000000000000e+02
2.390000000000000000e+02 1.060000000000000000e+02
4.030000000000000000e+02 1.060000000000000000e+02
4.040000000000000000e+02 1.060000000000000000e+02
4.050000000000000000e+02 1.060000000000000000e+02
4.070000000000000000e+02 1.060000000000000000e+02
4.080000000000000000e+02 1.060000000000000000e+02
4.090000000000000000e+02 1.060000000000000000e+02
5.500000000000000000e+02 1.060000000000000000e+02
5.510000000000000000e+02 1.060000000000000000e+02
5.520000000000000000e+02 1.060000000000000000e+02
5.540000000000000000e+02 1.060000000000000000e+02
5.550000000000000000e+02 1.060000000000000000e+02
5.560000000000000000e+02 1.060000000000000000e+02
7.460000000000000000e+02 1.060000000000000000e+02
7.470000000000000000e+02 1.060000000000000000e+02
7.480000000000000000e+02 1.060000000000000000e+02
7.500000000000000000e+02 1.060000000000000000e+02
7.510000000000000000e+02 1.060000000000000000e+02
7.520000000000000000e+02 1.060000000000000000e+02
8.910000000000000000e+02 1.060000000000000000e+02
8.920000000000000000e+02 1.060000000000000000e+02
8.930000000000000000e+02 1.060000000000000000e+02
8.940000000000000000e+02 1.060000000000000000e+02
8.950000000000000000e+02 1.060000000000000000e+02
8.960000000000000000e+02 1.060000000000000000e+02
8.970000000000000000e+02 1.060000000000000000e+02
5.900000000000000000e+01 1.070000000000000000e+02
6.000000000000000000e+01 1.070000000000000000e+02
6.100000000000000000e+01 1.070000000000000000e+02
6.300000000000000000e+01 1.070000000000000000e+02
6.400000000000000000e+01 1.070000000000000000e+02
6.500000000000000000e+01 1.070000000000000000e+02
2.330000000000000000e+02 1.070000000000000000e+02
2.340000000000000000e+02 1.070000000000000000e+02
2.350000000000000000e+02 1.070000000000000000e+02
2.370000000000000000e+02 1.070000000000000000e+02
2.380000000000000000e+02 1.070000000000000000e+02
2.390000000000000000e+02 1.070000000000000000e+02
4.030000000000000000e+02 1.070000000000000000e+02
4.040000000000000000e+02 1.070000000000000000e+02
4.050000000000000000e+02 1.070000000000000000e+02
4.070000000000000000e+02 1.070000000000000000e+02
4.080000000000000000e+02 1.070000000000000000e+02
4.090000000000000000e+02 1.070000000000000000e+02
5.500000000000000000e+02 1.070000000000000000e+02
5.510000000000000000e+02 1.070000000000000000e+02
5.520000000000000000e+02 1.070000000000000000e+02
5.540000000000000000e+02 1.070000000000000000e+02
5.550000000000000000e+02 1.070000000000000000e+02
5.560000000000000000e+02 1.070000000000000000e+02
7.460000000000000000e+02 1.070000000000000000e+02
7.470000000000000000e+02 1.070000000000000000e+02
7.480000000000000000e+02 1.070000000000000000e+02
7.500000000000000000e+02 1.070000000000000000e+02
7.510000000000000000e+02 1.070000000000000000e+02
7.520000000000000000e+02 1.070000000000000000e+02
8.910000000000000000e+02 1.070000000000000000e+02
8.920000000000000000e+02 1.070000000000000000e+02
8.930000000000000000e+02 1.070000000000000000e+02
8.940000000000000000e+02 1.070000000000000000e+02
8.950000000000000000e+02 1.070000000000000000e+02
8.960000000000000000e+02 1.070000000000000000e+02
8.970000000000000000e+02 1.070000000000000000e+02
5.900000000000000000e+01 1.080000000000000000e+02
6.000000000000000000e+01 1.080000000000000000e+02
6.100000000000000000e+01 1.080000000000000000e+02
6.300000000000000000e+01 1.080000000000000000e+02
6.400000000000000000e+01 1.080000000000000000e+02
6.500000000000000000e+01 1.080000000000000000e+02
2.330000000000000000e+02 1.080000000000000000e+02
2.340000000000000000e+02 1.080000000000000000e+02
2.350000000000000000e+02 1.080000000000000000e+02
2.370000000000000000e+02 1.080000000000000000e+02
2.380000000000000000e+02 1.080000000000000000e+02
2.390000000000000000e+02 1.080000000000000000e+02
4.030000000000000000e+02 1.080000000000000000e+02
4.040000000000000000e+02 1.080000000000000000e+02
4.050000000000000000e+02 1.080000000000000000e+02
4.070000000000000000e+02 1.080000000000000000e+02
4.080000000000000000e+02 1.080000000000000000e+02
4.090000000000000000e+02 1.080000000000000000e+02
4.100000000000000000e+02 1.080000000000000000e+02
5.500000000000000000e+02 1.080000000000000000e+02
5.510000000000000000e+02 1.080000000000000000e+02
5.520000000000000000e+02 1.080000000000000000e+02
5.540000000000000000e+02 1.080000000000000000e+02
5.550000000000000000e+02 1.080000000000000000e+02
5.560000000000000000e+02 1.080000000000000000e+02
7.460000000000000000e+02 1.080000000000000000e+02
7.470000000000000000e+02 1.080000000000000000e+02
7.480000000000000000e+02 1.080000000000000000e+02
7.500000000000000000e+02 1.080000000000000000e+02
7.510000000000000000e+02 1.080000000000000000e+02
7.520000000000000000e+02 1.080000000000000000e+02
8.910000000000000000e+02 1.080000000000000000e+02
8.920000000000000000e+02 1.080000000000000000e+02
8.930000000000000000e+02 1.080000000000000000e+02
8.940000000000000000e+02 1.080000000000000000e+02
8.950000000000000000e+02 1.080000000000000000e+02
8.960000000000000000e+02 1.080000000000000000e+02
8.970000000000000000e+02 1.080000000000000000e+02
5.900000000000000000e+01 1.090000000000000000e+02
6.000000000000000000e+01 1.090000000000000000e+02
6.100000000000000000e+01 1.090000000000000000e+02
6.300000000000000000e+01 1.090000000000000000e+02
6.400000000000000000e+01 1.090000000000000000e+02
6.500000000000000000e+01 1.090000000000000000e+02
2.330000000000000000e+02 1.090000000000000000e+02
2.340000000000000000e+02 1.090000000000000000e+02
2.350000000000000000e+02 1.090000000000000000e+02
2.370000000000000000e+02 1.090000000000000000e+02
2.380000000000000000e+02 1.090000000000000000e+02
2.390000000000000000e+02 1.090000000000000000e+02
4.020000000000000000e+02 1.090000000000000000e+02
4.030000000000000000e+02 1.090000000000000000e+02
4.040000000000000000e+02 1.090000000000000000e+02
4.050000000000000000e+02 1.090000000000000000e+02
4.070000000000000000e+02 1.090000000000000000e+02
4.080000000000000000e+02 1.090000000000000000e+02
4.090000000000000000e+02 1.090000000000000000e+02
4.100000000000000000e+02 1.090000000000000000e+02
5.500000000000000000e+02 1.090000000000000000e+02
5.510000000000000000e+02 1.090000000000000000e+02
5.520000000000000000e+02 1.090000000000000000e+02
5.540000000000000000e+02 1.090000000000000000e+02
5.550000000000000000e+02 1.090000000000000000e+02
5.560000000000000000e+02 1.090000000000000000e+02
7.460000000000000000e+02 1.090000000000000000e+02
7.470000000000000000e+02 1.090000000000000000e+02
7.480000000000000000e+02 1.090000000000000000e+02
7.500000000000000000e+02 1.090000000000000000e+02
7.510000000000000000e+02 1.090000000000000000e+02
7.520000000000000000e+02 1.090000000000000000e+02
8.910000000000000000e+02 1.090000000000000000e+02
8.920000000000000000e+02 1.090000000000000000e+02
8.930000000000000000e+02 1.090000000000000000e+02
8.940000000000000000e+02 1.090000000000000000e+02
8.950000000000000000e+02 1.090000000000000000e+02
8.960000000000000000e+02 1.090000000000000000e+02
8.970000000000000000e+02 1.090000000000000000e+02
8.980000000000000000e+02 1.090000000000000000e+02
5.900000000000000000e+01 1.100000000000000000e+02
6.000000000000000000e+01 1.100000000000000000e+02
6.100000000000000000e+01 1.100000000000000000e+02
6.300000000000000000e+01 1.100000000000000000e+02
6.400000000000000000e+01 1.100000000000000000e+02
6.500000000000000000e+01 1.100000000000000000e+02
2.330000000000000000e+02 1.100000000000000000e+02
2.340000000000000000e+02 1.100000000000000000e+02
2.350000000000000000e+02 1.100000000000000000e+02
2.370000000000000000e+02 1.100000000000000000e+02
2.380000000000000000e+02 1.100000000000000000e+02
2.390000000000000000e+02 1.100000000000000000e+02
4.020000000000000000e+02 1.100000000000000000e+02
4.030000000000000000e+02 1.100000000000000000e+02
4.040000000000000000e+02 1.100000000000000000e+02
4.050000000000000000e+02 1.100000000000000000e+02
4.070000000000000000e+02 1.100000000000000000e+02
4.080000000000000000e+02 1.100000000000000000e+02
4.090000000000000000e+02 1.100000000000000000e+02
4.100000000000000000e+02 1.100000000000000000e+02
5.500000000000000000e+02 1.100000000000000000e+02
5.510000000000000000e+02 1.100000000000000000e+02
5.520000000000000000e+02 1.100000000000000000e+02
5.540000000000000000e+02 1.100000000000000000e+02
5.550000000000000000e+02 1.100000000000000000e+02
5.560000000000000000e+02 1.100000000000000000e+02
7.460000000000000000e+02 1.100000000000000000e+02
7.470000000000000000e+02 1.100000000000000000e+02
7.480000000000000000e+02 1.100000000000000000e+02
7.500000000000000000e+02 1.100000000000000000e+02
7.510000000000000000e+02 1.100000000000000000e+02
7.520000000000000000e+02 1.100000000000000000e+02
8.910000000000000000e+02 1.100000000000000000e+02
8.920000000000000000e+02 1.100000000000000000e+02
8.930000000000000000e+02 1.100000000000000000e+02
8.940000000000000000e+02 1.100000000000000000e+02
8.950000000000000000e+02 1.100000000000000000e+02
8.960000000000000000e+02 1.100000000000000000e+02
8.970000000000000000e+02 1.100000000000000000e+02
8.980000000000000000e+02 1.100000000000000000e+02
5.900000000000000000e+01 1.110000000000000000e+02
6.000000000000000000e+01 1.110000000000000000e+02
6.100000000000000000e+01 1.110000000000000000e+02
6.300000000000000000e+01 1.110000000000000000e+02
6.400000000000000000e+01 1.110000000000000000e+02
6.500000000000000000e+01 1.110000000000000000e+02
2.330000000000000000e+02 1.110000000000000000e+02
2.340000000000000000e+02 1.110000000000000000e+02
2.350000000000000000e+02 1.110000000000000000e+02
2.370000000000000000e+02 1.110000000000000000e+02
2.380000000000000000e+02 1.110000000000000000e+02
2.390000000000000000e+02 1.110000000000000000e+02
4.020000000000000000e+02 1.110000000000000000e+02
4.030000000000000000e+02 1.110000000000000000e+02
4.040000000000000000e+02 1.110000000000000000e+02
4.050000000000000000e+02 1.110000000000000000e+02
4.070000000000000000e+02 1.110000000000000000e+02
4.080000000000000000e+02 1.110000000000000000e+02
4.090000000000000000e+02 1.110000000000000000e+02
4.100000000000000000e+02 1.110000000000000000e+02
5.500000000000000000e+02 1.110000000000000000e+02
5.510000000000000000e+02 1.110000000000000000e+02
5.520000000000000000e+02 1.110000000000000000e+02
5.540000000000000000e+02 1.110000000000000000e+02
5.550000000000000000e+02 1.110000000000000000e+02
5.560000000000000000e+02 1.110000000000000000e+02
7.460000000000000000e+02 1.110000000000000000e+02
7.470000000000000000e+02 1.110000000000000000e+02
7.480000000000000000e+02 1.110000000000000000e+02
7.500000000000000000e+02 1.110000000000000000e+02
7.510000000000000000e+02 1.110000000000000000e+02
7.520000000000000000e+02 1.110000000000000000e+02
8.910000000000000000e+02 1.110000000000000000e+02
8.920000000000000000e+02 1.110000000000000000e+02
8.930000000000000000e+02 1.110000000000000000e+02
8.950000000000000000e+02 1.110000000000000000e+02
8.960000000000000000e+02 1.110000000000000000e+02
8.970000000000000000e+02 1.110000000000000000e+02
8.980000000000000000e+02 1.110000000000000000e+02
5.900000000000000000e+01 1.120000000000000000e+02
6.000000000000000000e+01 1.120000000000000000e+02
6.100000000000000000e+01 1.120000000000000000e+02
6.300000000000000000e+01 1.120000000000000000e+02
6.400000000000000000e+01 1.120000000000000000e+02
6.500000000000000000e+01 1.120000000000000000e+02
2.330000000000000000e+02 1.120000000000000000e+02
2.340000000000000000e+02 1.120000000000000000e+02
2.350000000000000000e+02 1.120000000000000000e+02
2.370000000000000000e+02 1.120000000000000000e+02
2.380000000000000000e+02 1.120000000000000000e+02
2.390000000000000000e+02 1.120000000000000000e+02
4.020000000000000000e+02 1.120000000000000000e+02
4.030000000000000000e+02 1.120000000000000000e+02
4.040000000000000000e+02 1.120000000000000000e+02
4.050000000000000000e+02 1.120000000000000000e+02
4.070000000000000000e+02 1.120000000000000000e+02
4.080000000000000000e+02 1.120000000000000000e+02
4.090000000000000000e+02 1.120000000000000000e+02
4.100000000000000000e+02 1.120000000000000000e+02
5.500000000000000000e+02 1.120000000000000000e+02
5.510000000000000000e+02 1.120000000000000000e+02
5.520000000000000000e+02 1.120000000000000000e+02
5.540000000000000000e+02 1.120000000000000000e+02
5.550000000000000000e+02 1.120000000000000000e+02
5.560000000000000000e+02 1.120000000000000000e+02
7.460000000000000000e+02 1.120000000000000000e+02
7.470000000000000000e+02 1.120000000000000000e+02
7.480000000000000000e+02 1.120000000000000000e+02
7.500000000000000000e+02 1.120000000000000000e+02
7.510000000000000000e+02 1.120000000000000000e+02
7.520000000000000000e+02 1.120000000000000000e+02
8.910000000000000000e+02 1.120000000000000000e+02
8.920000000000000000e+02 1.120000000000000000e+02
8.930000000000000000e+02 1.120000000000000000e+02
8.950000000000000000e+02 1.120000000000000000e+02
8.960000000000000000e+02 1.120000000000000000e+02
8.970000000000000000e+02 1.120000000000000000e+02
8.980000000000000000e+02 1.120000000000000000e+02
5.900000000000000000e+01 1.130000000000000000e+02
6.000000000000000000e+01 1.130000000000000000e+02
6.100000000000000000e+01 1.130000000000000000e+02
6.300000000000000000e+01 1.130000000000000000e+02
6.400000000000000000e+01 1.130000000000000000e+02
6.500000000000000000e+01 1.130000000000000000e+02
2.330000000000000000e+02 1.130000000000000000e+02
2.340000000000000000e+02 1.130000000000000000e+02
2.350000000000000000e+02 1.130000000000000000e+02
2.370000000000000000e+02 1.130000000000000000e+02
2.380000000000000000e+02 1.130000000000000000e+02
2.390000000000000000e+02 1.130000000000000000e+02
4.020000000000000000e+02 1.130000000000000000e+02
4.030000000000000000e+02 1.130000000000000000e+02
4.040000000000000000e+02 1.130000000000000000e+02
4.070000000000000000e+02 1.130000000000000000e+02
4.080000000000000000e+02 1.130000000000000000e+02
4.090000000000000000e+02 1.130000000000000000e+02
4.100000000000000000e+02 1.130000000000000000e+02
5.490000000000000000e+02 1.130000000000000000e+02
5.500000000000000000e+02 1.130000000000000000e+02
5.510000000000000000e+02 1.130000000000000000e+02
5.520000000000000000e+02 1.130000000000000000e+02
5.540000000000000000e+02 1.130000000000000000e+02
5.550000000000000000e+02 1.130000000000000000e+02
5.560000000000000000e+02 1.130000000000000000e+02
7.460000000000000000e+02 1.130000000000000000e+02
7.470000000000000000e+02 1.130000000000000000e+02
7.480000000000000000e+02 1.130000000000000000e+02
7.500000000000000000e+02 1.130000000000000000e+02
7.510000000000000000e+02 1.130000000000000000e+02
7.520000000000000000e+02 1.130000000000000000e+02
8.910000000000000000e+02 1.130000000000000000e+02
8.920000000000000000e+02 1.130000000000000000e+02
8.930000000000000000e+02 1.130000000000000000e+02
8.950000000000000000e+02 1.130000000000000000e+02
8.960000000000000000e+02 1.130000000000000000e+02
8.970000000000000000e+02 1.130000000000000000e+02
8.980000000000000000e+02 1.130000000000000000e+02
5.900000000000000000e+01 1.140000000000000000e+02
6.000000000000000000e+01 1.140000000000000000e+02
6.100000000000000000e+01 1.140000000000000000e+02
6.300000000000000000e+01 1.140000000000000000e+02
6.400000000000000000e+01 1.140000000000000000e+02
6.500000000000000000e+01 1.140000000000000000e+02
2.330000000000000000e+02 1.140000000000000000e+02
2.340000000000000000e+02 1.140000000000000000e+02
2.350000000000000000e+02 1.140000000000000000e+02
2.370000000000000000e+02 1.140000000000000000e+02
2.380000000000000000e+02 1.140000000000000000e+02
2.390000000000000000e+02 1.140000000000000000e+02
4.020000000000000000e+02 1.140000000000000000e+02
4.030000000000000000e+02 1.140000000000000000e+02
4.040000000000000000e+02 1.140000000000000000e+02
4.070000000000000000e+02 1.140000000000000000e+02
4.080000000000000000e+02 1.140000000000000000e+02
4.090000000000000000e+02 1.140000000000000000e+02
4.100000000000000000e+02 1.140000000000000000e+02
5.490000000000000000e+02 1.140000000000000000e+02
5.500000000000000000e+02 1.140000000000000000e+02
5.510000000000000000e+02 1.140000000000000000e+02
5.520000000000000000e+02 1.140000000000000000e+02
5.540000000000000000e+02 1.140000000000000000e+02
5.550000000000000000e+02 1.140000000000000000e+02
5.560000000000000000e+02 1.140000000000000000e+02
7.460000000000000000e+02 1.140000000000000000e+02
7.470000000000000000e+02 1.140000000000000000e+02
7.480000000000000000e+02 1.140000000000000000e+02
7.500000000000000000e+02 1.140000000000000000e+02
7.510000000000000000e+02 1.140000000000000000e+02
7.520000000000000000e+02 1.140000000000000000e+02
8.910000000000000000e+02 1.140000000000000000e+02
8.920000000000000000e+02 1.140000000000000000e+02
8.930000000000000000e+02 1.140000000000000000e+02
8.950000000000000000e+02 1.140000000000000000e+02
8.960000000000000000e+02 1.140000000000000000e+02
8.970000000000000000e+02 1.140000000000000000e+02
8.980000000000000000e+02 1.140000000000000000e+02
5.900000000000000000e+01 1.150000000000000000e+02
6.000000000000000000e+01 1.150000000000000000e+02
6.100000000000000000e+01 1.150000000000000000e+02
6.300000000000000000e+01 1.150000000000000000e+02
6.400000000000000000e+01 1.150000000000000000e+02
6.500000000000000000e+01 1.150000000000000000e+02
2.330000000000000000e+02 1.150000000000000000e+02
2.340000000000000000e+02 1.150000000000000000e+02
2.350000000000000000e+02 1.150000000000000000e+02
2.370000000000000000e+02 1.150000000000000000e+02
2.380000000000000000e+02 1.150000000000000000e+02
2.390000000000000000e+02 1.150000000000000000e+02
4.020000000000000000e+02 1.150000000000000000e+02
4.030000000000000000e+02 1.150000000000000000e+02
4.040000000000000000e+02 1.150000000000000000e+02
4.070000000000000000e+02 1.150000000000000000e+02
4.080000000000000000e+02 1.150000000000000000e+02
4.090000000000000000e+02 1.150000000000000000e+02
4.100000000000000000e+02 1.150000000000000000e+02
5.490000000000000000e+02 1.150000000000000000e+02
5.500000000000000000e+02 1.150000000000000000e+02
5.510000000000000000e+02 1.150000000000000000e+02
5.520000000000000000e+02 1.150000000000000000e+02
5.540000000000000000e+02 1.150000000000000000e+02
5.550000000000000000e+02 1.150000000000000000e+02
5.560000000000000000e+02 1.150000000000000000e+02
7.450000000000000000e+02 1.150000000000000000e+02
7.460000000000000000e+02 1.150000000000000000e+02
7.470000000000000000e+02 1.150000000000000000e+02
7.480000000000000000e+02 1.150000000000000000e+02
7.500000000000000000e+02 1.150000000000000000e+02
7.510000000000000000e+02 1.150000000000000000e+02
7.520000000000000000e+02 1.150000000000000000e+02
8.910000000000000000e+02 1.150000000000000000e+02
8.920000000000000000e+02 1.150000000000000000e+02
8.930000000000000000e+02 1.150000000000000000e+02
8.950000000000000000e+02 1.150000000000000000e+02
8.960000000000000000e+02 1.150000000000000000e+02
8.970000000000000000e+02 1.150000000000000000e+02
8.980000000000000000e+02 1.150000000000000000e+02
5.800000000000000000e+01 1.160000000000000000e+02
5.900000000000000000e+01 1.160000000000000000e+02
6.000000000000000000e+01 1.160000000000000000e+02
6.100000000000000000e+01 1.160000000000000000e+02
6.300000000000000000e+01 1.160000000000000000e+02
6.400000000000000000e+01 1.160000000000000000e+02
6.500000000000000000e+01 1.160000000000000000e+02
2.330000000000000000e+02 1.160000000000000000e+02
2.340000000000000000e+02 1.160000000000000000e+02
2.350000000000000000e+02 1.160000000000000000e+02
2.370000000000000000e+02 1.160000000000000000e+02
2.380000000000000000e+02 1.160000000000000000e+02
2.390000000000000000e+02 1.160000000000000000e+02
4.020000000000000000e+02 1.160000000000000000e+02
4.030000000000000000e+02 1.160000000000000000e+02
4.040000000000000000e+02 1.160000000000000000e+02
4.070000000000000000e+02 1.160000000000000000e+02
4.080000000000000000e+02 1.160000000000000000e+02
4.090000000000000000e+02 1.160000000000000000e+02
4.100000000000000000e+02 1.160000000000000000e+02
5.490000000000000000e+02 1.160000000000000000e+02
5.500000000000000000e+02 1.160000000000000000e+02
5.510000000000000000e+02 1.160000000000000000e+02
5.540000000000000000e+02 1.160000000000000000e+02
5.550000000000000000e+02 1.160000000000000000e+02
5.560000000000000000e+02 1.160000000000000000e+02
7.450000000000000000e+02 1.160000000000000000e+02
7.460000000000000000e+02 1.160000000000000000e+02
7.470000000000000000e+02 1.160000000000000000e+02
7.480000000000000000e+02 1.160000000000000000e+02
7.500000000000000000e+02 1.160000000000000000e+02
7.510000000000000000e+02 1.160000000000000000e+02
7.520000000000000000e+02 1.160000000000000000e+02
8.910000000000000000e+02 1.160000000000000000e+02
8.920000000000000000e+02 1.160000000000000000e+02
8.930000000000000000e+02 1.160000000000000000e+02
8.950000000000000000e+02 1.160000000000000000e+02
8.960000000000000000e+02 1.160000000000000000e+02
8.970000000000000000e+02 1.160000000000000000e+02
8.980000000000000000e+02 1.160000000000000000e+02
5.800000000000000000e+01 1.170000000000000000e+02
5.900000000000000000e+01 1.170000000000000000e+02
6.000000000000000000e+01 1.170000000000000000e+02
6.100000000000000000e+01 1.170000000000000000e+02
6.300000000000000000e+01 1.170000000000000000e+02
6.400000000000000000e+01 1.170000000000000000e+02
6.500000000000000000e+01 1.170000000000000000e+02
2.330000000000000000e+02 1.170000000000000000e+02
2.340000000000000000e+02 1.170000000000000000e+02
2.350000000000000000e+02 1.170000000000000000e+02
2.370000000000000000e+02 1.170000000000000000e+02
2.380000000000000000e+02 1.170000000000000000e+02
2.390000000000000000e+02 1.170000000000000000e+02
2.400000000000000000e+02 1.170000000000000000e+02
4.020000000000000000e+02 1.170000000000000000e+02
4.030000000000000000e+02 1.170000000000000000e+02
4.040000000000000000e+02 1.170000000000000000e+02
4.070000000000000000e+02 1.170000000000000000e+02
4.080000000000000000e+02 1.170000000000000000e+02
4.090000000000000000e+02 1.170000000000000000e+02
4.100000000000000000e+02 1.170000000000000000e+02
5.490000000000000000e+02 1.170000000000000000e+02
5.500000000000000000e+02 1.170000000000000000e+02
5.510000000000000000e+02 1.170000000000000000e+02
5.540000000000000000e+02 1.170000000000000000e+02
5.550000000000000000e+02 1.170000000000000000e+02
5.560000000000000000e+02 1.170000000000000000e+02
7.450000000000000000e+02 1.170000000000000000e+02
7.460000000000000000e+02 1.170000000000000000e+02
7.470000000000000000e+02 1.170000000000000000e+02
7.480000000000000000e+02 1.170000000000000000e+02
7.500000000000000000e+02 1.170000000000000000e+02
7.510000000000000000e+02 1.170000000000000000e+02
7.520000000000000000e+02 1.170000000000000000e+02
8.910000000000000000e+02 1.170000000000000000e+02
8.920000000000000000e+02 1.170000000000000000e+02
8.930000000000000000e+02 1.170000000000000000e+02
8.950000000000000000e+02 1.170000000000000000e+02
8.960000000000000000e+02 1.170000000000000000e+02
8.970000000000000000e+02 1.170000000000000000e+02
8.980000000000000000e+02 1.170000000000000000e+02
5.800000000000000000e+01 1.180000000000000000e+02
5.900000000000000000e+01 1.180000000000000000e+02
6.000000000000000000e+01 1.180000000000000000e+02
6.100000000000000000e+01 1.180000000000000000e+02
6.300000000000000000e+01 1.180000000000000000e+02
6.400000000000000000e+01 1.180000000000000000e+02
6.500000000000000000e+01 1.180000000000000000e+02
2.320000000000000000e+02 1.180000000000000000e+02
2.330000000000000000e+02 1.180000000000000000e+02
2.340000000000000000e+02 1.180000000000000000e+02
2.350000000000000000e+02 1.180000000000000000e+02
2.370000000000000000e+02 1.180000000000000000e+02
2.380000000000000000e+02 1.180000000000000000e+02
2.390000000000000000e+02 1.180000000000000000e+02
2.400000000000000000e+02 1.180000000000000000e+02
4.020000000000000000e+02 1.180000000000000000e+02
4.030000000000000000e+02 1.180000000000000000e+02
4.040000000000000000e+02 1.180000000000000000e+02
4.070000000000000000e+02 1.180000000000000000e+02
4.080000000000000000e+02 1.180000000000000000e+02
4.090000000000000000e+02 1.180000000000000000e+02
4.100000000000000000e+02 1.180000000000000000e+02
5.490000000000000000e+02 1.180000000000000000e+02
5.500000000000000000e+02 1.180000000000000000e+02
5.510000000000000000e+02 1.180000000000000000e+02
5.540000000000000000e+02 1.180000000000000000e+02
5.550000000000000000e+02 1.180000000000000000e+02
5.560000000000000000e+02 1.180000000000000000e+02
7.450000000000000000e+02 1.180000000000000000e+02
7.460000000000000000e+02 1.180000000000000000e+02
7.470000000000000000e+02 1.180000000000000000e+02
7.480000000000000000e+02 1.180000000000000000e+02
7.500000000000000000e+02 1.180000000000000000e+02
7.510000000000000000e+02 1.180000000000000000e+02
7.520000000000000000e+02 1.180000000000000000e+02
8.910000000000000000e+02 1.180000000000000000e+02
8.920000000000000000e+02 1.180000000000000000e+02
8.930000000000000000e+02 1.180000000000000000e+02
8.950000000000000000e+02 1.180000000000000000e+02
8.960000000000000000e+02 1.180000000000000000e+02
8.970000000000000000e+02 1.180000000000000000e+02
8.980000000000000000e+02 1.180000000000000000e+02
5.800000000000000000e+01 1.190000000000000000e+02
5.900000000000000000e+01 1.190000000000000000e+02
6.000000000000000000e+01 1.190000000000000000e+02
6.300000000000000000e+01 1.190000000000000000e+02
6.400000000000000000e+01 1.190000000000000000e+02
6.500000000000000000e+01 1.190000000000000000e+02
2.320000000000000000e+02 1.190000000000000000e+02
2.330000000000000000e+02 1.190000000000000000e+02
2.340000000000000000e+02 1.190000000000000000e+02
2.350000000000000000e+02 1.190000000000000000e+02
2.370000000000000000e+02 1.190000000000000000e+02
2.380000000000000000e+02 1.190000000000000000e+02
2.390000000000000000e+02 1.190000000000000000e+02
2.400000000000000000e+02 1.190000000000000000e+02
4.020000000000000000e+02 1.190000000000000000e+02
4.030000000000000000e+02 1.190000000000000000e+02
4.040000000000000000e+02 1.190000000000000000e+02
4.070000000000000000e+02 1.190000000000000000e+02
4.080000000000000000e+02 1.190000000000000000e+02
4.090000000000000000e+02 1.190000000000000000e+02
4.100000000000000000e+02 1.190000000000000000e+02
5.490000000000000000e+02 1.190000000000000000e+02
5.500000000000000000e+02 1.190000000000000000e+02
5.510000000000000000e+02 1.190000000000000000e+02
5.540000000000000000e+02 1.190000000000000000e+02
5.550000000000000000e+02 1.190000000000000000e+02
5.560000000000000000e+02 1.190000000000000000e+02
7.450000000000000000e+02 1.190000000000000000e+02
7.460000000000000000e+02 1.190000000000000000e+02
7.470000000000000000e+02 1.190000000000000000e+02
7.500000000000000000e+02 1.190000000000000000e+02
7.510000000000000000e+02 1.190000000000000000e+02
7.520000000000000000e+02 1.190000000000000000e+02
8.910000000000000000e+02 1.190000000000000000e+02
8.920000000000000000e+02 1.190000000000000000e+02
8.930000000000000000e+02 1.190000000000000000e+02
8.950000000000000000e+02 1.190000000000000000e+02
8.960000000000000000e+02 1.190000000000000000e+02
8.970000000000000000e+02 1.190000000000000000e+02
8.980000000000000000e+02 1.190000000000000000e+02
5.800000000000000000e+01 1.200000000000000000e+02
5.900000000000000000e+01 1.200000000000000000e+02
6.000000000000000000e+01 1.200000000000000000e+02
6.300000000000000000e+01 1.200000000000000000e+02
6.400000000000000000e+01 1.200000000000000000e+02
6.500000000000000000e+01 1.200000000000000000e+02
2.320000000000000000e+02 1.200000000000000000e+02
2.330000000000000000e+02 1.200000000000000000e+02
2.340000000000000000e+02 1.200000000000000000e+02
2.350000000000000000e+02 1.200000000000000000e+02
2.370000000000000000e+02 1.200000000000000000e+02
2.380000000000000000e+02 1.200000000000000000e+02
2.390000000000000000e+02 1.200000000000000000e+02
2.400000000000000000e+02 1.200000000000000000e+02
4.020000000000000000e+02 1.200000000000000000e+02
4.030000000000000000e+02 1.200000000000000000e+02
4.040000000000000000e+02 1.200000000000000000e+02
4.070000000000000000e+02 1.200000000000000000e+02
4.080000000000000000e+02 1.200000000000000000e+02
4.090000000000000000e+02 1.200000000000000000e+02
4.100000000000000000e+02 1.200000000000000000e+02
5.490000000000000000e+02 1.200000000000000000e+02
5.500000000000000000e+02 1.200000000000000000e+02
5.510000000000000000e+02 1.200000000000000000e+02
5.540000000000000000e+02 1.200000000000000000e+02
5.550000000000000000e+02 1.200000000000000000e+02
5.560000000000000000e+02 1.200000000000000000e+02
7.450000000000000000e+02 1.200000000000000000e+02
7.460000000000000000e+02 1.200000000000000000e+02
7.470000000000000000e+02 1.200000000000000000e+02
7.500000000000000000e+02 1.200000000000000000e+02
7.510000000000000000e+02 1.200000000000000000e+02
7.520000000000000000e+02 1.200000000000000000e+02
8.910000000000000000e+02 1.200000000000000000e+02
8.920000000000000000e+02 1.200000000000000000e+02
8.930000000000000000e+02 1.200000000000000000e+02
8.960000000000000000e+02 1.200000000000000000e+02
8.970000000000000000e+02 1.200000000000000000e+02
8.980000000000000000e+02 1.200000000000000000e+02
5.800000000000000000e+01 1.210000000000000000e+02
5.900000000000000000e+01 1.210000000000000000e+02
6.000000000000000000e+01 1.210000000000000000e+02
6.300000000000000000e+01 1.210000000000000000e+02
6.400000000000000000e+01 1.210000000000000000e+02
6.500000000000000000e+01 1.210000000000000000e+02
2.320000000000000000e+02 1.210000000000000000e+02
2.330000000000000000e+02 1.210000000000000000e+02
2.340000000000000000e+02 1.210000000000000000e+02
2.370000000000000000e+02 1.210000000000000000e+02
2.380000000000000000e+02 1.210000000000000000e+02
2.390000000000000000e+02 1.210000000000000000e+02
2.400000000000000000e+02 1.210000000000000000e+02
4.020000000000000000e+02 1.210000000000000000e+02
4.030000000000000000e+02 1.210000000000000000e+02
4.040000000000000000e+02 1.210000000000000000e+02
4.080000000000000000e+02 1.210000000000000000e+02
4.090000000000000000e+02 1.210000000000000000e+02
4.100000000000000000e+02 1.210000000000000000e+02
5.490000000000000000e+02 1.210000000000000000e+02
5.500000000000000000e+02 1.210000000000000000e+02
5.510000000000000000e+02 1.210000000000000000e+02
5.540000000000000000e+02 1.210000000000000000e+02
5.550000000000000000e+02 1.210000000000000000e+02
5.560000000000000000e+02 1.210000000000000000e+02
7.450000000000000000e+02 1.210000000000000000e+02
7.460000000000000000e+02 1.210000000000000000e+02
7.470000000000000000e+02 1.210000000000000000e+02
7.500000000000000000e+02 1.210000000000000000e+02
7.510000000000000000e+02 1.210000000000000000e+02
7.520000000000000000e+02 1.210000000000000000e+02
8.910000000000000000e+02 1.210000000000000000e+02
8.920000000000000000e+02 1.210000000000000000e+02
8.930000000000000000e+02 1.210000000000000000e+02
8.960000000000000000e+02 1.210000000000000000e+02
8.970000000000000000e+02 1.210000000000000000e+02
8.980000000000000000e+02 1.210000000000000000e+02
5.800000000000000000e+01 1.220000000000000000e+02
5.900000000000000000e+01 1.220000000000000000e+02
6.000000000000000000e+01 1.220000000000000000e+02
6.300000000000000000e+01 1.220000000000000000e+02
6.400000000000000000e+01 1.220000000000000000e+02
6.500000000000000000e+01 1.220000000000000000e+02
2.320000000000000000e+02 1.220000000000000000e+02
2.330000000000000000e+02 1.220000000000000000e+02
2.340000000000000000e+02 1.220000000000000000e+02
2.370000000000000000e+02 1.220000000000000000e+02
2.380000000000000000e+02 1.220000000000000000e+02
2.390000000000000000e+02 1.220000000000000000e+02
2.400000000000000000e+02 1.220000000000000000e+02
4.020000000000000000e+02 1.220000000000000000e+02
4.030000000000000000e+02 1.220000000000000000e+02
4.040000000000000000e+02 1.220000000000000000e+02
4.080000000000000000e+02 1.220000000000000000e+02
4.090000000000000000e+02 1.220000000000000000e+02
4.100000000000000000e+02 1.220000000000000000e+02
5.490000000000000000e+02 1.220000000000000000e+02
5.500000000000000000e+02 1.220000000000000000e+02
5.510000000000000000e+02 1.220000000000000000e+02
5.540000000000000000e+02 1.220000000000000000e+02
5.550000000000000000e+02 1.220000000000000000e+02
5.560000000000000000e+02 1.220000000000000000e+02
7.450000000000000000e+02 1.220000000000000000e+02
7.460000000000000000e+02 1.220000000000000000e+02
7.470000000000000000e+02 1.220000000000000000e+02
7.500000000000000000e+02 1.220000000000000000e+02
7.510000000000000000e+02 1.220000000000000000e+02
7.520000000000000000e+02 1.220000000000000000e+02
8.910000000000000000e+02 1.220000000000000000e+02
8.920000000000000000e+02 1.220000000000000000e+02
8.930000000000000000e+02 1.220000000000000000e+02
8.960000000000000000e+02 1.220000000000000000e+02
8.970000000000000000e+02 1.220000000000000000e+02
8.980000000000000000e+02 1.220000000000000000e+02
5.800000000000000000e+01 1.230000000000000000e+02
5.900000000000000000e+01 1.230000000000000000e+02
6.000000000000000000e+01 1.230000000000000000e+02
6.300000000000000000e+01 1.230000000000000000e+02
6.400000000000000000e+01 1.230000000000000000e+02
6.500000000000000000e+01 1.230000000000000000e+02
2.320000000000000000e+02 1.230000000000000000e+02
2.330000000000000000e+02 1.230000000000000000e+02
2.340000000000000000e+02 1.230000000000000000e+02
2.370000000000000000e+02 1.230000000000000000e+02
2.380000000000000000e+02 1.230000000000000000e+02
2.390000000000000000e+02 1.230000000000000000e+02
2.400000000000000000e+02 1.230000000000000000e+02
4.020000000000000000e+02 1.230000000000000000e+02
4.030000000000000000e+02 1.230000000000000000e+02
4.040000000000000000e+02 1.230000000000000000e+02
4.080000000000000000e+02 1.230000000000000000e+02
4.090000000000000000e+02 1.230000000000000000e+02
4.100000000000000000e+02 1.230000000000000000e+02
5.490000000000000000e+02 1.230000000000000000e+02
5.500000000000000000e+02 1.230000000000000000e+02
5.510000000000000000e+02 1.230000000000000000e+02
5.540000000000000000e+02 1.230000000000000000e+02
5.550000000000000000e+02 1.230000000000000000e+02
5.560000000000000000e+02 1.230000000000000000e+02
7.450000000000000000e+02 1.230000000000000000e+02
7.460000000000000000e+02 1.230000000000000000e+02
7.470000000000000000e+02 1.230000000000000000e+02
7.500000000000000000e+02 1.230000000000000000e+02
7.510000000000000000e+02 1.230000000000000000e+02
7.520000000000000000e+02 1.230000000000000000e+02
8.910000000000000000e+02 1.230000000000000000e+02
8.920000000000000000e+02 1.230000000000000000e+02
8.930000000000000000e+02 1.230000000000000000e+02
8.960000000000000000e+02 1.230000000000000000e+02
8.970000000000000000e+02 1.230000000000000000e+02
8.980000000000000000e+02 1.230000000000000000e+02
5.800000000000000000e+01 1.240000000000000000e+02
5.900000000000000000e+01 1.240000000000000000e+02
6.000000000000000000e+01 1.240000000000000000e+02
6.300000000000000000e+01 1.240000000000000000e+02
6.400000000000000000e+01 1.240000000000000000e+02
6.500000000000000000e+01 1.240000000000000000e+02
2.320000000000000000e+02 1.240000000000000000e+02
2.330000000000000000e+02 1.240000000000000000e+02
2.340000000000000000e+02 1.240000000000000000e+02
2.370000000000000000e+02 1.240000000000000000e+02
2.380000000000000000e+02 1.240000000000000000e+02
2.390000000000000000e+02 1.240000000000000000e+02
2.400000000000000000e+02 1.240000000000000000e+02
4.020000000000000000e+02 1.240000000000000000e+02
4.030000000000000000e+02 1.240000000000000000e+02
4.040000000000000000e+02 1.240000000000000000e+02
4.080000000000000000e+02 1.240000000000000000e+02
4.090000000000000000e+02 1.240000000000000000e+02
4.100000000000000000e+02 1.240000000000000000e+02
5.490000000000000000e+02 1.240000000000000000e+02
5.500000000000000000e+02 1.240000000000000000e+02
5.510000000000000000e+02 1.240000000000000000e+02
5.540000000000000000e+02 1.240000000000000000e+02
5.550000000000000000e+02 1.240000000000000000e+02
5.560000000000000000e+02 1.240000000000000000e+02
7.450000000000000000e+02 1.240000000000000000e+02
7.460000000000000000e+02 1.240000000000000000e+02
7.470000000000000000e+02 1.240000000000000000e+02
7.500000000000000000e+02 1.240000000000000000e+02
7.510000000000000000e+02 1.240000000000000000e+02
7.520000000000000000e+02 1.240000000000000000e+02
8.910000000000000000e+02 1.240000000000000000e+02
8.920000000000000000e+02 1.240000000000000000e+02
8.930000000000000000e+02 1.240000000000000000e+02
8.960000000000000000e+02 1.240000000000000000e+02
8.970000000000000000e+02 1.240000000000000000e+02
8.980000000000000000e+02 1.240000000000000000e+02
5.800000000000000000e+01 1.250000000000000000e+02
5.900000000000000000e+01 1.250000000000000000e+02
6.000000000000000000e+01 1.250000000000000000e+02
6.300000000000000000e+01 1.250000000000000000e+02
6.400000000000000000e+01 1.250000000000000000e+02
6.500000000000000000e+01 1.250000000000000000e+02
2.320000000000000000e+02 1.250000000000000000e+02
2.330000000000000000e+02 1.250000000000000000e+02
2.340000000000000000e+02 1.250000000000000000e+02
2.370000000000000000e+02 1.250000000000000000e+02
2.380000000000000000e+02 1.250000000000000000e+02
2.390000000000000000e+02 1.250000000000000000e+02
2.400000000000000000e+02 1.250000000000000000e+02
4.020000000000000000e+02 1.250000000000000000e+02
4.030000000000000000e+02 1.250000000000000000e+02
4.040000000000000000e+02 1.250000000000000000e+02
4.080000000000000000e+02 1.250000000000000000e+02
4.090000000000000000e+02 1.250000000000000000e+02
4.100000000000000000e+02 1.250000000000000000e+02
5.490000000000000000e+02 1.250000000000000000e+02
5.500000000000000000e+02 1.250000000000000000e+02
5.510000000000000000e+02 1.250000000000000000e+02
5.540000000000000000e+02 1.250000000000000000e+02
5.550000000000000000e+02 1.250000000000000000e+02
5.560000000000000000e+02 1.250000000000000000e+02
7.450000000000000000e+02 1.250000000000000000e+02
7.460000000000000000e+02 1.250000000000000000e+02
7.470000000000000000e+02 1.250000000000000000e+02
7.500000000000000000e+02 1.250000000000000000e+02
7.510000000000000000e+02 1.250000000000000000e+02
7.520000000000000000e+02 1.250000000000000000e+02
7.530000000000000000e+02 1.250000000000000000e+02
8.910000000000000000e+02 1.250000000000000000e+02
8.920000000000000000e+02 1.250000000000000000e+02
8.930000000000000000e+02 1.250000000000000000e+02
8.960000000000000000e+02 1.250000000000000000e+02
8.970000000000000000e+02 1.250000000000000000e+02
8.980000000000000000e+02 1.250000000000000000e+02
5.800000000000000000e+01 1.260000000000000000e+02
5.900000000000000000e+01 1.260000000000000000e+02
6.000000000000000000e+01 1.260000000000000000e+02
6.300000000000000000e+01 1.260000000000000000e+02
6.400000000000000000e+01 1.260000000000000000e+02
6.500000000000000000e+01 1.260000000000000000e+02
2.320000000000000000e+02 1.260000000000000000e+02
2.330000000000000000e+02 1.260000000000000000e+02
2.340000000000000000e+02 1.260000000000000000e+02
2.370000000000000000e+02 1.260000000000000000e+02
2.380000000000000000e+02 1.260000000000000000e+02
2.390000000000000000e+02 1.260000000000000000e+02
2.400000000000000000e+02 1.260000000000000000e+02
4.020000000000000000e+02 1.260000000000000000e+02
4.030000000000000000e+02 1.260000000000000000e+02
4.040000000000000000e+02 1.260000000000000000e+02
4.080000000000000000e+02 1.260000000000000000e+02
4.090000000000000000e+02 1.260000000000000000e+02
4.100000000000000000e+02 1.260000000000000000e+02
5.490000000000000000e+02 1.260000000000000000e+02
5.500000000000000000e+02 1.260000000000000000e+02
5.510000000000000000e+02 1.260000000000000000e+02
5.540000000000000000e+02 1.260000000000000000e+02
5.550000000000000000e+02 1.260000000000000000e+02
5.560000000000000000e+02 1.260000000000000000e+02
7.450000000000000000e+02 1.260000000000000000e+02
7.460000000000000000e+02 1.260000000000000000e+02
7.470000000000000000e+02 1.260000000000000000e+02
7.500000000000000000e+02 1.260000000000000000e+02
7.510000000000000000e+02 1.260000000000000000e+02
7.520000000000000000e+02 1.260000000000000000e+02
7.530000000000000000e+02 1.260000000000000000e+02
8.910000000000000000e+02 1.260000000000000000e+02
8.920000000000000000e+02 1.260000000000000000e+02
8.930000000000000000e+02 1.260000000000000000e+02
8.960000000000000000e+02 1.260000000000000000e+02
8.970000000000000000e+02 1.260000000000000000e+02
8.980000000000000000e+02 1.260000000000000000e+02
4.300000000000000000e+01 1.270000000000000000e+02
4.400000000000000000e+01 1.270000000000000000e+02
4.500000000000000000e+01 1.270000000000000000e+02
4.600000000000000000e+01 1.270000000000000000e+02
4.700000000000000000e+01 1.270000000000000000e+02
4.800000000000000000e+01 1.270000000000000000e+02
4.900000000000000000e+01 1.270000000000000000e+02
5.600000000000000000e+01 1.270000000000000000e+02
5.700000000000000000e+01 1.270000000000000000e+02
5.800000000000000000e+01 1.270000000000000000e+02
5.900000000000000000e+01 1.270000000000000000e+02
6.000000000000000000e+01 1.270000000000000000e+02
6.100000000000000000e+01 1.270000000000000000e+02
6.300000000000000000e+01 1.270000000000000000e+02
6.400000000000000000e+01 1.270000000000000000e+02
6.500000000000000000e+01 1.270000000000000000e+02
6.600000000000000000e+01 1.270000000000000000e+02
6.700000000000000000e+01 1.270000000000000000e+02
6.800000000000000000e+01 1.270000000000000000e+02
6.900000000000000000e+01 1.270000000000000000e+02
7.000000000000000000e+01 1.270000000000000000e+02
7.100000000000000000e+01 1.270000000000000000e+02
7.200000000000000000e+01 1.270000000000000000e+02
7.300000000000000000e+01 1.270000000000000000e+02
7.400000000000000000e+01 1.270000000000000000e+02
7.500000000000000000e+01 1.270000000000000000e+02
2.320000000000000000e+02 1.270000000000000000e+02
2.330000000000000000e+02 1.270000000000000000e+02
2.340000000000000000e+02 1.270000000000000000e+02
2.370000000000000000e+02 1.270000000000000000e+02
2.380000000000000000e+02 1.270000000000000000e+02
2.390000000000000000e+02 1.270000000000000000e+02
2.400000000000000000e+02 1.270000000000000000e+02
4.020000000000000000e+02 1.270000000000000000e+02
4.030000000000000000e+02 1.270000000000000000e+02
4.040000000000000000e+02 1.270000000000000000e+02
4.080000000000000000e+02 1.270000000000000000e+02
4.090000000000000000e+02 1.270000000000000000e+02
4.100000000000000000e+02 1.270000000000000000e+02
5.490000000000000000e+02 1.270000000000000000e+02
5.500000000000000000e+02 1.270000000000000000e+02
5.510000000000000000e+02 1.270000000000000000e+02
5.540000000000000000e+02 1.270000000000000000e+02
5.550000000000000000e+02 1.270000000000000000e+02
5.560000000000000000e+02 1.270000000000000000e+02
7.450000000000000000e+02 1.270000000000000000e+02
7.460000000000000000e+02 1.270000000000000000e+02
7.470000000000000000e+02 1.270000000000000000e+02
7.500000000000000000e+02 1.270000000000000000e+02
7.510000000000000000e+02 1.270000000000000000e+02
7.520000000000000000e+02 1.270000000000000000e+02
7.530000000000000000e+02 1.270000000000000000e+02
8.900000000000000000e+02 1.270000000000000000e+02
8.910000000000000000e+02 1.270000000000000000e+02
8.920000000000000000e+02 1.270000000000000000e+02
8.930000000000000000e+02 1.270000000000000000e+02
8.960000000000000000e+02 1.270000000000000000e+02
8.970000000000000000e+02 1.270000000000000000e+02
8.980000000000000000e+02 1.270000000000000000e+02
4.400000000000000000e+01 1.280000000000000000e+02
4.500000000000000000e+01 1.280000000000000000e+02
4.600000000000000000e+01 1.280000000000000000e+02
4.700000000000000000e+01 1.280000000000000000e+02
5.800000000000000000e+01 1.280000000000000000e+02
5.900000000000000000e+01 1.280000000000000000e+02
6.000000000000000000e+01 1.280000000000000000e+02
6.300000000000000000e+01 1.280000000000000000e+02
6.400000000000000000e+01 1.280000000000000000e+02
6.500000000000000000e+01 1.280000000000000000e+02
6.600000000000000000e+01 1.280000000000000000e+02
6.700000000000000000e+01 1.280000000000000000e+02
7.300000000000000000e+01 1.280000000000000000e+02
7.400000000000000000e+01 1.280000000000000000e+02
7.500000000000000000e+01 1.280000000000000000e+02
2.320000000000000000e+02 1.280000000000000000e+02
2.330000000000000000e+02 1.280000000000000000e+02
2.340000000000000000e+02 1.280000000000000000e+02
2.380000000000000000e+02 1.280000000000000000e+02
2.390000000000000000e+02 1.280000000000000000e+02
2.400000000000000000e+02 1.280000000000000000e+02
4.010000000000000000e+02 1.280000000000000000e+02
4.020000000000000000e+02 1.280000000000000000e+02
4.030000000000000000e+02 1.280000000000000000e+02
4.040000000000000000e+02 1.280000000000000000e+02
4.080000000000000000e+02 1.280000000000000000e+02
4.090000000000000000e+02 1.280000000000000000e+02
4.100000000000000000e+02 1.280000000000000000e+02
5.480000000000000000e+02 1.280000000000000000e+02
5.490000000000000000e+02 1.280000000000000000e+02
5.500000000000000000e+02 1.280000000000000000e+02
5.510000000000000000e+02 1.280000000000000000e+02
5.540000000000000000e+02 1.280000000000000000e+02
5.550000000000000000e+02 1.280000000000000000e+02
5.560000000000000000e+02 1.280000000000000000e+02
7.450000000000000000e+02 1.280000000000000000e+02
7.460000000000000000e+02 1.280000000000000000e+02
7.470000000000000000e+02 1.280000000000000000e+02
7.500000000000000000e+02 1.280000000000000000e+02
7.510000000000000000e+02 1.280000000000000000e+02
7.520000000000000000e+02 1.280000000000000000e+02
7.530000000000000000e+02 1.280000000000000000e+02
8.900000000000000000e+02 1.280000000000000000e+02
8.910000000000000000e+02 1.280000000000000000e+02
8.920000000000000000e+02 1.280000000000000000e+02
8.930000000000000000e+02 1.280000000000000000e+02
8.960000000000000000e+02 1.280000000000000000e+02
8.970000000000000000e+02 1.280000000000000000e+02
8.980000000000000000e+02 1.280000000000000000e+02
4.500000000000000000e+01 1.290000000000000000e+02
4.600000000000000000e+01 1.290000000000000000e+02
4.700000000000000000e+01 1.290000000000000000e+02
5.800000000000000000e+01 1.290000000000000000e+02
5.900000000000000000e+01 1.290000000000000000e+02
6.000000000000000000e+01 1.290000000000000000e+02
6.300000000000000000e+01 1.290000000000000000e+02
6.400000000000000000e+01 1.290000000000000000e+02
6.500000000000000000e+01 1.290000000000000000e+02
6.600000000000000000e+01 1.290000000000000000e+02
6.700000000000000000e+01 1.290000000000000000e+02
7.500000000000000000e+01 1.290000000000000000e+02
2.320000000000000000e+02 1.290000000000000000e+02
2.330000000000000000e+02 1.290000000000000000e+02
2.340000000000000000e+02 1.290000000000000000e+02
2.380000000000000000e+02 1.290000000000000000e+02
2.390000000000000000e+02 1.290000000000000000e+02
2.400000000000000000e+02 1.290000000000000000e+02
4.010000000000000000e+02 1.290000000000000000e+02
4.020000000000000000e+02 1.290000000000000000e+02
4.030000000000000000e+02 1.290000000000000000e+02
4.040000000000000000e+02 1.290000000000000000e+02
4.080000000000000000e+02 1.290000000000000000e+02
4.090000000000000000e+02 1.290000000000000000e+02
4.100000000000000000e+02 1.290000000000000000e+02
5.480000000000000000e+02 1.290000000000000000e+02
5.490000000000000000e+02 1.290000000000000000e+02
5.500000000000000000e+02 1.290000000000000000e+02
5.510000000000000000e+02 1.290000000000000000e+02
5.540000000000000000e+02 1.290000000000000000e+02
5.550000000000000000e+02 1.290000000000000000e+02
5.560000000000000000e+02 1.290000000000000000e+02
5.570000000000000000e+02 1.290000000000000000e+02
7.450000000000000000e+02 1.290000000000000000e+02
7.460000000000000000e+02 1.290000000000000000e+02
7.470000000000000000e+02 1.290000000000000000e+02
7.500000000000000000e+02 1.290000000000000000e+02
7.510000000000000000e+02 1.290000000000000000e+02
7.520000000000000000e+02 1.290000000000000000e+02
7.530000000000000000e+02 1.290000000000000000e+02
8.900000000000000000e+02 1.290000000000000000e+02
8.910000000000000000e+02 1.290000000000000000e+02
8.920000000000000000e+02 1.290000000000000000e+02
8.930000000000000000e+02 1.290000000000000000e+02
8.960000000000000000e+02 1.290000000000000000e+02
8.970000000000000000e+02 1.290000000000000000e+02
8.980000000000000000e+02 1.290000000000000000e+02
4.600000000000000000e+01 1.300000000000000000e+02
4.700000000000000000e+01 1.300000000000000000e+02
5.800000000000000000e+01 1.300000000000000000e+02
5.900000000000000000e+01 1.300000000000000000e+02
6.000000000000000000e+01 1.300000000000000000e+02
6.300000000000000000e+01 1.300000000000000000e+02
6.400000000000000000e+01 1.300000000000000000e+02
6.500000000000000000e+01 1.300000000000000000e+02
6.600000000000000000e+01 1.300000000000000000e+02
6.700000000000000000e+01 1.300000000000000000e+02
2.320000000000000000e+02 1.300000000000000000e+02
2.330000000000000000e+02 1.300000000000000000e+02
2.340000000000000000e+02 1.300000000000000000e+02
2.380000000000000000e+02 1.300000000000000000e+02
2.390000000000000000e+02 1.300000000000000000e+02
2.400000000000000000e+02 1.300000000000000000e+02
4.010000000000000000e+02 1.300000000000000000e+02
4.020000000000000000e+02 1.300000000000000000e+02
4.030000000000000000e+02 1.300000000000000000e+02
4.040000000000000000e+02 1.300000000000000000e+02
4.080000000000000000e+02 1.300000000000000000e+02
4.090000000000000000e+02 1.300000000000000000e+02
4.100000000000000000e+02 1.300000000000000000e+02
5.480000000000000000e+02 1.300000000000000000e+02
5.490000000000000000e+02 1.300000000000000000e+02
5.500000000000000000e+02 1.300000000000000000e+02
5.510000000000000000e+02 1.300000000000000000e+02
5.540000000000000000e+02 1.300000000000000000e+02
5.550000000000000000e+02 1.300000000000000000e+02
5.560000000000000000e+02 1.300000000000000000e+02
5.570000000000000000e+02 1.300000000000000000e+02
7.450000000000000000e+02 1.300000000000000000e+02
7.460000000000000000e+02 1.300000000000000000e+02
7.470000000000000000e+02 1.300000000000000000e+02
7.500000000000000000e+02 1.300000000000000000e+02
7.510000000000000000e+02 1.300000000000000000e+02
7.520000000000000000e+02 1.300000000000000000e+02
7.530000000000000000e+02 1.300000000000000000e+02
8.900000000000000000e+02 1.300000000000000000e+02
8.910000000000000000e+02 1.300000000000000000e+02
8.920000000000000000e+02 1.300000000000000000e+02
8.930000000000000000e+02 1.300000000000000000e+02
8.960000000000000000e+02 1.300000000000000000e+02
8.970000000000000000e+02 1.300000000000000000e+02
8.980000000000000000e+02 1.300000000000000000e+02
4.600000000000000000e+01 1.310000000000000000e+02
4.700000000000000000e+01 1.310000000000000000e+02
4.800000000000000000e+01 1.310000000000000000e+02
5.800000000000000000e+01 1.310000000000000000e+02
5.900000000000000000e+01 1.310000000000000000e+02
6.000000000000000000e+01 1.310000000000000000e+02
6.300000000000000000e+01 1.310000000000000000e+02
6.400000000000000000e+01 1.310000000000000000e+02
6.500000000000000000e+01 1.310000000000000000e+02
6.600000000000000000e+01 1.310000000000000000e+02
6.700000000000000000e+01 1.310000000000000000e+02
7.600000000000000000e+01 1.310000000000000000e+02
2.320000000000000000e+02 1.310000000000000000e+02
2.330000000000000000e+02 1.310000000000000000e+02
2.340000000000000000e+02 1.310000000000000000e+02
2.380000000000000000e+02 1.310000000000000000e+02
2.390000000000000000e+02 1.310000000000000000e+02
2.400000000000000000e+02 1.310000000000000000e+02
2.970000000000000000e+02 1.310000000000000000e+02
2.980000000000000000e+02 1.310000000000000000e+02
2.990000000000000000e+02 1.310000000000000000e+02
4.010000000000000000e+02 1.310000000000000000e+02
4.020000000000000000e+02 1.310000000000000000e+02
4.030000000000000000e+02 1.310000000000000000e+02
4.040000000000000000e+02 1.310000000000000000e+02
4.080000000000000000e+02 1.310000000000000000e+02
4.090000000000000000e+02 1.310000000000000000e+02
4.100000000000000000e+02 1.310000000000000000e+02
5.480000000000000000e+02 1.310000000000000000e+02
5.490000000000000000e+02 1.310000000000000000e+02
5.500000000000000000e+02 1.310000000000000000e+02
5.510000000000000000e+02 1.310000000000000000e+02
5.540000000000000000e+02 1.310000000000000000e+02
5.550000000000000000e+02 1.310000000000000000e+02
5.560000000000000000e+02 1.310000000000000000e+02
5.570000000000000000e+02 1.310000000000000000e+02
7.450000000000000000e+02 1.310000000000000000e+02
7.460000000000000000e+02 1.310000000000000000e+02
7.470000000000000000e+02 1.310000000000000000e+02
7.500000000000000000e+02 1.310000000000000000e+02
7.510000000000000000e+02 1.310000000000000000e+02
7.520000000000000000e+02 1.310000000000000000e+02
7.530000000000000000e+02 1.310000000000000000e+02
8.900000000000000000e+02 1.310000000000000000e+02
8.910000000000000000e+02 1.310000000000000000e+02
8.920000000000000000e+02 1.310000000000000000e+02
8.930000000000000000e+02 1.310000000000000000e+02
8.960000000000000000e+02 1.310000000000000000e+02
8.970000000000000000e+02 1.310000000000000000e+02
8.980000000000000000e+02 1.310000000000000000e+02
4.600000000000000000e+01 1.320000000000000000e+02
4.700000000000000000e+01 1.320000000000000000e+02
4.800000000000000000e+01 1.320000000000000000e+02
5.700000000000000000e+01 1.320000000000000000e+02
5.800000000000000000e+01 1.320000000000000000e+02
5.900000000000000000e+01 1.320000000000000000e+02
6.000000000000000000e+01 1.320000000000000000e+02
6.300000000000000000e+01 1.320000000000000000e+02
6.400000000000000000e+01 1.320000000000000000e+02
6.500000000000000000e+01 1.320000000000000000e+02
6.600000000000000000e+01 1.320000000000000000e+02
6.700000000000000000e+01 1.320000000000000000e+02
2.320000000000000000e+02 1.320000000000000000e+02
2.330000000000000000e+02 1.320000000000000000e+02
2.340000000000000000e+02 1.320000000000000000e+02
2.380000000000000000e+02 1.320000000000000000e+02
2.390000000000000000e+02 1.320000000000000000e+02
2.400000000000000000e+02 1.320000000000000000e+02
2.950000000000000000e+02 1.320000000000000000e+02
2.960000000000000000e+02 1.320000000000000000e+02
2.970000000000000000e+02 1.320000000000000000e+02
2.980000000000000000e+02 1.320000000000000000e+02
2.990000000000000000e+02 1.320000000000000000e+02
3.000000000000000000e+02 1.320000000000000000e+02
4.010000000000000000e+02 1.320000000000000000e+02
4.020000000000000000e+02 1.320000000000000000e+02
4.030000000000000000e+02 1.320000000000000000e+02
4.080000000000000000e+02 1.320000000000000000e+02
4.090000000000000000e+02 1.320000000000000000e+02
4.100000000000000000e+02 1.320000000000000000e+02
5.480000000000000000e+02 1.320000000000000000e+02
5.490000000000000000e+02 1.320000000000000000e+02
5.500000000000000000e+02 1.320000000000000000e+02
5.510000000000000000e+02 1.320000000000000000e+02
5.540000000000000000e+02 1.320000000000000000e+02
5.550000000000000000e+02 1.320000000000000000e+02
5.560000000000000000e+02 1.320000000000000000e+02
5.570000000000000000e+02 1.320000000000000000e+02
7.450000000000000000e+02 1.320000000000000000e+02
7.460000000000000000e+02 1.320000000000000000e+02
7.470000000000000000e+02 1.320000000000000000e+02
7.500000000000000000e+02 1.320000000000000000e+02
7.510000000000000000e+02 1.320000000000000000e+02
7.520000000000000000e+02 1.320000000000000000e+02
7.530000000000000000e+02 1.320000000000000000e+02
8.900000000000000000e+02 1.320000000000000000e+02
8.910000000000000000e+02 1.320000000000000000e+02
8.920000000000000000e+02 1.320000000000000000e+02
8.960000000000000000e+02 1.320000000000000000e+02
8.970000000000000000e+02 1.320000000000000000e+02
8.980000000000000000e+02 1.320000000000000000e+02
3.100000000000000000e+01 1.330000000000000000e+02
3.200000000000000000e+01 1.330000000000000000e+02
3.300000000000000000e+01 1.330000000000000000e+02
3.400000000000000000e+01 1.330000000000000000e+02
3.500000000000000000e+01 1.330000000000000000e+02
4.700000000000000000e+01 1.330000000000000000e+02
4.800000000000000000e+01 1.330000000000000000e+02
4.900000000000000000e+01 1.330000000000000000e+02
5.700000000000000000e+01 1.330000000000000000e+02
5.800000000000000000e+01 1.330000000000000000e+02
5.900000000000000000e+01 1.330000000000000000e+02
6.000000000000000000e+01 1.330000000000000000e+02
6.300000000000000000e+01 1.330000000000000000e+02
6.400000000000000000e+01 1.330000000000000000e+02
6.500000000000000000e+01 1.330000000000000000e+02
6.600000000000000000e+01 1.330000000000000000e+02
6.700000000000000000e+01 1.330000000000000000e+02
2.320000000000000000e+02 1.330000000000000000e+02
2.330000000000000000e+02 1.330000000000000000e+02
2.340000000000000000e+02 1.330000000000000000e+02
2.380000000000000000e+02 1.330000000000000000e+02
2.390000000000000000e+02 1.330000000000000000e+02
2.400000000000000000e+02 1.330000000000000000e+02
2.950000000000000000e+02 1.330000000000000000e+02
2.960000000000000000e+02 1.330000000000000000e+02
2.970000000000000000e+02 1.330000000000000000e+02
2.980000000000000000e+02 1.330000000000000000e+02
2.990000000000000000e+02 1.330000000000000000e+02
3.000000000000000000e+02 1.330000000000000000e+02
4.010000000000000000e+02 1.330000000000000000e+02
4.020000000000000000e+02 1.330000000000000000e+02
4.030000000000000000e+02 1.330000000000000000e+02
4.080000000000000000e+02 1.330000000000000000e+02
4.090000000000000000e+02 1.330000000000000000e+02
4.100000000000000000e+02 1.330000000000000000e+02
5.480000000000000000e+02 1.330000000000000000e+02
5.490000000000000000e+02 1.330000000000000000e+02
5.500000000000000000e+02 1.330000000000000000e+02
5.510000000000000000e+02 1.330000000000000000e+02
5.540000000000000000e+02 1.330000000000000000e+02
5.550000000000000000e+02 1.330000000000000000e+02
5.560000000000000000e+02 1.330000000000000000e+02
5.570000000000000000e+02 1.330000000000000000e+02
7.450000000000000000e+02 1.330000000000000000e+02
7.460000000000000000e+02 1.330000000000000000e+02
7.470000000000000000e+02 1.330000000000000000e+02
7.500000000000000000e+02 1.330000000000000000e+02
7.510000000000000000e+02 1.330000000000000000e+02
7.520000000000000000e+02 1.330000000000000000e+02
7.530000000000000000e+02 1.330000000000000000e+02
8.900000000000000000e+02 1.330000000000000000e+02
8.910000000000000000e+02 1.330000000000000000e+02
8.920000000000000000e+02 1.330000000000000000e+02
8.960000000000000000e+02 1.330000000000000000e+02
8.970000000000000000e+02 1.330000000000000000e+02
8.980000000000000000e+02 1.330000000000000000e+02
3.000000000000000000e+01 1.340000000000000000e+02
3.100000000000000000e+01 1.340000000000000000e+02
3.500000000000000000e+01 1.340000000000000000e+02
3.600000000000000000e+01 1.340000000000000000e+02
4.700000000000000000e+01 1.340000000000000000e+02
4.800000000000000000e+01 1.340000000000000000e+02
4.900000000000000000e+01 1.340000000000000000e+02
5.700000000000000000e+01 1.340000000000000000e+02
5.800000000000000000e+01 1.340000000000000000e+02
5.900000000000000000e+01 1.340000000000000000e+02
6.000000000000000000e+01 1.340000000000000000e+02
6.300000000000000000e+01 1.340000000000000000e+02
6.400000000000000000e+01 1.340000000000000000e+02
6.500000000000000000e+01 1.340000000000000000e+02
6.600000000000000000e+01 1.340000000000000000e+02
6.700000000000000000e+01 1.340000000000000000e+02
7.300000000000000000e+01 1.340000000000000000e+02
2.320000000000000000e+02 1.340000000000000000e+02
2.330000000000000000e+02 1.340000000000000000e+02
2.340000000000000000e+02 1.340000000000000000e+02
2.380000000000000000e+02 1.340000000000000000e+02
2.390000000000000000e+02 1.340000000000000000e+02
2.400000000000000000e+02 1.340000000000000000e+02
2.940000000000000000e+02 1.340000000000000000e+02
2.950000000000000000e+02 1.340000000000000000e+02
2.960000000000000000e+02 1.340000000000000000e+02
2.970000000000000000e+02 1.340000000000000000e+02
2.980000000000000000e+02 1.340000000000000000e+02
2.990000000000000000e+02 1.340000000000000000e+02
3.000000000000000000e+02 1.340000000000000000e+02
4.010000000000000000e+02 1.340000000000000000e+02
4.020000000000000000e+02 1.340000000000000000e+02
4.030000000000000000e+02 1.340000000000000000e+02
4.080000000000000000e+02 1.340000000000000000e+02
4.090000000000000000e+02 1.340000000000000000e+02
4.100000000000000000e+02 1.340000000000000000e+02
4.710000000000000000e+02 1.340000000000000000e+02
4.720000000000000000e+02 1.340000000000000000e+02
4.730000000000000000e+02 1.340000000000000000e+02
5.480000000000000000e+02 1.340000000000000000e+02
5.490000000000000000e+02 1.340000000000000000e+02
5.500000000000000000e+02 1.340000000000000000e+02
5.540000000000000000e+02 1.340000000000000000e+02
5.550000000000000000e+02 1.340000000000000000e+02
5.560000000000000000e+02 1.340000000000000000e+02
5.570000000000000000e+02 1.340000000000000000e+02
7.440000000000000000e+02 1.340000000000000000e+02
7.450000000000000000e+02 1.340000000000000000e+02
7.460000000000000000e+02 1.340000000000000000e+02
7.470000000000000000e+02 1.340000000000000000e+02
7.500000000000000000e+02 1.340000000000000000e+02
7.510000000000000000e+02 1.340000000000000000e+02
7.520000000000000000e+02 1.340000000000000000e+02
7.530000000000000000e+02 1.340000000000000000e+02
8.900000000000000000e+02 1.340000000000000000e+02
8.910000000000000000e+02 1.340000000000000000e+02
8.920000000000000000e+02 1.340000000000000000e+02
8.960000000000000000e+02 1.340000000000000000e+02
8.970000000000000000e+02 1.340000000000000000e+02
8.980000000000000000e+02 1.340000000000000000e+02
2.900000000000000000e+01 1.350000000000000000e+02
3.000000000000000000e+01 1.350000000000000000e+02
3.500000000000000000e+01 1.350000000000000000e+02
3.600000000000000000e+01 1.350000000000000000e+02
3.700000000000000000e+01 1.350000000000000000e+02
4.800000000000000000e+01 1.350000000000000000e+02
4.900000000000000000e+01 1.350000000000000000e+02
5.000000000000000000e+01 1.350000000000000000e+02
5.600000000000000000e+01 1.350000000000000000e+02
5.700000000000000000e+01 1.350000000000000000e+02
5.800000000000000000e+01 1.350000000000000000e+02
5.900000000000000000e+01 1.350000000000000000e+02
6.000000000000000000e+01 1.350000000000000000e+02
6.300000000000000000e+01 1.350000000000000000e+02
6.400000000000000000e+01 1.350000000000000000e+02
6.500000000000000000e+01 1.350000000000000000e+02
6.600000000000000000e+01 1.350000000000000000e+02
6.700000000000000000e+01 1.350000000000000000e+02
7.300000000000000000e+01 1.350000000000000000e+02
2.320000000000000000e+02 1.350000000000000000e+02
2.330000000000000000e+02 1.350000000000000000e+02
2.340000000000000000e+02 1.350000000000000000e+02
2.380000000000000000e+02 1.350000000000000000e+02
2.390000000000000000e+02 1.350000000000000000e+02
2.400000000000000000e+02 1.350000000000000000e+02
2.930000000000000000e+02 1.350000000000000000e+02
2.940000000000000000e+02 1.350000000000000000e+02
2.950000000000000000e+02 1.350000000000000000e+02
2.960000000000000000e+02 1.350000000000000000e+02
2.970000000000000000e+02 1.350000000000000000e+02
2.980000000000000000e+02 1.350000000000000000e+02
2.990000000000000000e+02 1.350000000000000000e+02
3.000000000000000000e+02 1.350000000000000000e+02
3.010000000000000000e+02 1.350000000000000000e+02
4.010000000000000000e+02 1.350000000000000000e+02
4.020000000000000000e+02 1.350000000000000000e+02
4.030000000000000000e+02 1.350000000000000000e+02
4.080000000000000000e+02 1.350000000000000000e+02
4.090000000000000000e+02 1.350000000000000000e+02
4.100000000000000000e+02 1.350000000000000000e+02
4.700000000000000000e+02 1.350000000000000000e+02
4.710000000000000000e+02 1.350000000000000000e+02
4.720000000000000000e+02 1.350000000000000000e+02
4.730000000000000000e+02 1.350000000000000000e+02
4.740000000000000000e+02 1.350000000000000000e+02
5.480000000000000000e+02 1.350000000000000000e+02
5.490000000000000000e+02 1.350000000000000000e+02
5.500000000000000000e+02 1.350000000000000000e+02
5.540000000000000000e+02 1.350000000000000000e+02
5.550000000000000000e+02 1.350000000000000000e+02
5.560000000000000000e+02 1.350000000000000000e+02
5.570000000000000000e+02 1.350000000000000000e+02
7.440000000000000000e+02 1.350000000000000000e+02
7.450000000000000000e+02 1.350000000000000000e+02
7.460000000000000000e+02 1.350000000000000000e+02
7.470000000000000000e+02 1.350000000000000000e+02
7.500000000000000000e+02 1.350000000000000000e+02
7.510000000000000000e+02 1.350000000000000000e+02
7.520000000000000000e+02 1.350000000000000000e+02
7.530000000000000000e+02 1.350000000000000000e+02
8.900000000000000000e+02 1.350000000000000000e+02
8.910000000000000000e+02 1.350000000000000000e+02
8.920000000000000000e+02 1.350000000000000000e+02
8.960000000000000000e+02 1.350000000000000000e+02
8.970000000000000000e+02 1.350000000000000000e+02
8.980000000000000000e+02 1.350000000000000000e+02
2.900000000000000000e+01 1.360000000000000000e+02
3.000000000000000000e+01 1.360000000000000000e+02
3.500000000000000000e+01 1.360000000000000000e+02
3.600000000000000000e+01 1.360000000000000000e+02
3.700000000000000000e+01 1.360000000000000000e+02
4.800000000000000000e+01 1.360000000000000000e+02
4.900000000000000000e+01 1.360000000000000000e+02
5.000000000000000000e+01 1.360000000000000000e+02
5.600000000000000000e+01 1.360000000000000000e+02
5.700000000000000000e+01 1.360000000000000000e+02
5.800000000000000000e+01 1.360000000000000000e+02
5.900000000000000000e+01 1.360000000000000000e+02
6.000000000000000000e+01 1.360000000000000000e+02
6.300000000000000000e+01 1.360000000000000000e+02
6.400000000000000000e+01 1.360000000000000000e+02
6.500000000000000000e+01 1.360000000000000000e+02
6.600000000000000000e+01 1.360000000000000000e+02
6.700000000000000000e+01 1.360000000000000000e+02
6.800000000000000000e+01 1.360000000000000000e+02
6.900000000000000000e+01 1.360000000000000000e+02
7.000000000000000000e+01 1.360000000000000000e+02
7.100000000000000000e+01 1.360000000000000000e+02
7.200000000000000000e+01 1.360000000000000000e+02
7.300000000000000000e+01 1.360000000000000000e+02
2.310000000000000000e+02 1.360000000000000000e+02
2.320000000000000000e+02 1.360000000000000000e+02
2.330000000000000000e+02 1.360000000000000000e+02
2.340000000000000000e+02 1.360000000000000000e+02
2.380000000000000000e+02 1.360000000000000000e+02
2.390000000000000000e+02 1.360000000000000000e+02
2.400000000000000000e+02 1.360000000000000000e+02
2.930000000000000000e+02 1.360000000000000000e+02
2.940000000000000000e+02 1.360000000000000000e+02
2.950000000000000000e+02 1.360000000000000000e+02
2.960000000000000000e+02 1.360000000000000000e+02
2.980000000000000000e+02 1.360000000000000000e+02
2.990000000000000000e+02 1.360000000000000000e+02
3.000000000000000000e+02 1.360000000000000000e+02
3.010000000000000000e+02 1.360000000000000000e+02
3.020000000000000000e+02 1.360000000000000000e+02
4.010000000000000000e+02 1.360000000000000000e+02
4.020000000000000000e+02 1.360000000000000000e+02
4.030000000000000000e+02 1.360000000000000000e+02
4.080000000000000000e+02 1.360000000000000000e+02
4.090000000000000000e+02 1.360000000000000000e+02
4.100000000000000000e+02 1.360000000000000000e+02
4.690000000000000000e+02 1.360000000000000000e+02
4.700000000000000000e+02 1.360000000000000000e+02
4.710000000000000000e+02 1.360000000000000000e+02
4.720000000000000000e+02 1.360000000000000000e+02
4.730000000000000000e+02 1.360000000000000000e+02
4.740000000000000000e+02 1.360000000000000000e+02
5.480000000000000000e+02 1.360000000000000000e+02
