3.500000000000000000e+01 0.000000000000000000e+00
3.600000000000000000e+01 0.000000000000000000e+00
3.700000000000000000e+01 0.000000000000000000e+00
3.800000000000000000e+01 0.000000000000000000e+00
3.900000000000000000e+01 0.000000000000000000e+00
4.000000000000000000e+01 0.000000000000000000e+00
4.100000000000000000e+01 0.000000000000000000e+00
1.620000000000000000e+02 0.000000000000000000e+00
1.630000000000000000e+02 0.000000000000000000e+00
1.640000000000000000e+02 0.000000000000000000e+00
1.660000000000000000e+02 0.000000000000000000e+00
1.670000000000000000e+02 0.000000000000000000e+00
1.680000000000000000e+02 0.000000000000000000e+00
2.890000000000000000e+02 0.000000000000000000e+00
2.900000000000000000e+02 0.000000000000000000e+00
2.910000000000000000e+02 0.000000000000000000e+00
2.930000000000000000e+02 0.000000000000000000e+00
2.940000000000000000e+02 0.000000000000000000e+00
2.950000000000000000e+02 0.000000000000000000e+00
4.160000000000000000e+02 0.000000000000000000e+00
4.170000000000000000e+02 0.000000000000000000e+00
4.180000000000000000e+02 0.000000000000000000e+00
4.200000000000000000e+02 0.000000000000000000e+00
4.210000000000000000e+02 0.000000000000000000e+00
4.220000000000000000e+02 0.000000000000000000e+00
5.430000000000000000e+02 0.000000000000000000e+00
5.440000000000000000e+02 0.000000000000000000e+00
5.450000000000000000e+02 0.000000000000000000e+00
5.460000000000000000e+02 0.000000000000000000e+00
5.470000000000000000e+02 0.000000000000000000e+00
5.480000000000000000e+02 0.000000000000000000e+00
5.490000000000000000e+02 0.000000000000000000e+00
5.500000000000000000e+02 0.000000000000000000e+00
6.710000000000000000e+02 0.000000000000000000e+00
6.720000000000000000e+02 0.000000000000000000e+00
6.730000000000000000e+02 0.000000000000000000e+00
6.750000000000000000e+02 0.000000000000000000e+00
6.760000000000000000e+02 0.000000000000000000e+00
6.770000000000000000e+02 0.000000000000000000e+00
7.990000000000000000e+02 0.000000000000000000e+00
8.000000000000000000e+02 0.000000000000000000e+00
8.010000000000000000e+02 0.000000000000000000e+00
8.020000000000000000e+02 0.000000000000000000e+00
8.030000000000000000e+02 0.000000000000000000e+00
8.040000000000000000e+02 0.000000000000000000e+00
9.250000000000000000e+02 0.000000000000000000e+00
9.260000000000000000e+02 0.000000000000000000e+00
9.270000000000000000e+02 0.000000000000000000e+00
9.280000000000000000e+02 0.000000000000000000e+00
9.300000000000000000e+02 0.000000000000000000e+00
9.310000000000000000e+02 0.000000000000000000e+00
9.320000000000000000e+02 0.000000000000000000e+00
3.500000000000000000e+01 1.000000000000000000e+00
3.600000000000000000e+01 1.000000000000000000e+00
3.700000000000000000e+01 1.000000000000000000e+00
3.800000000000000000e+01 1.000000000000000000e+00
3.900000000000000000e+01 1.000000000000000000e+00
4.000000000000000000e+01 1.000000000000000000e+00
4.100000000000000000e+01 1.000000000000000000e+00
1.620000000000000000e+02 1.000000000000000000e+00
1.630000000000000000e+02 1.000000000000000000e+00
1.640000000000000000e+02 1.000000000000000000e+00
1.660000000000000000e+02 1.000000000000000000e+00
1.670000000000000000e+02 1.000000000000000000e+00
1.680000000000000000e+02 1.000000000000000000e+00
2.890000000000000000e+02 1.000000000000000000e+00
2.900000000000000000e+02 1.000000000000000000e+00
2.910000000000000000e+02 1.000000000000000000e+00
2.930000000000000000e+02 1.000000000000000000e+00
2.940000000000000000e+02 1.000000000000000000e+00
2.950000000000000000e+02 1.000000000000000000e+00
4.160000000000000000e+02 1.000000000000000000e+00
4.170000000000000000e+02 1.000000000000000000e+00
4.180000000000000000e+02 1.000000000000000000e+00
4.190000000000000000e+02 1.000000000000000000e+00
4.200000000000000000e+02 1.000000000000000000e+00
4.210000000000000000e+02 1.000000000000000000e+00
4.220000000000000000e+02 1.000000000000000000e+00
5.440000000000000000e+02 1.000000000000000000e+00
5.450000000000000000e+02 1.000000000000000000e+00
5.460000000000000000e+02 1.000000000000000000e+00
5.470000000000000000e+02 1.000000000000000000e+00
5.480000000000000000e+02 1.000000000000000000e+00
5.490000000000000000e+02 1.000000000000000000e+00
5.500000000000000000e+02 1.000000000000000000e+00
6.710000000000000000e+02 1.000000000000000000e+00
6.720000000000000000e+02 1.000000000000000000e+00
6.730000000000000000e+02 1.000000000000000000e+00
6.750000000000000000e+02 1.000000000000000000e+00
6.760000000000000000e+02 1.000000000000000000e+00
6.770000000000000000e+02 1.000000000000000000e+00
7.990000000000000000e+02 1.000000000000000000e+00
8.000000000000000000e+02 1.000000000000000000e+00
8.010000000000000000e+02 1.000000000000000000e+00
8.020000000000000000e+02 1.000000000000000000e+00
8.030000000000000000e+02 1.000000000000000000e+00
8.040000000000000000e+02 1.000000000000000000e+00
9.250000000000000000e+02 1.000000000000000000e+00
9.260000000000000000e+02 1.000000000000000000e+00
9.270000000000000000e+02 1.000000000000000000e+00
9.280000000000000000e+02 1.000000000000000000e+00
9.300000000000000000e+02 1.000000000000000000e+00
9.310000000000000000e+02 1.000000000000000000e+00
9.320000000000000000e+02 1.000000000000000000e+00
3.500000000000000000e+01 2.000000000000000000e+00
3.600000000000000000e+01 2.000000000000000000e+00
3.700000000000000000e+01 2.000000000000000000e+00
3.800000000000000000e+01 2.000000000000000000e+00
3.900000000000000000e+01 2.000000000000000000e+00
4.000000000000000000e+01 2.000000000000000000e+00
4.100000000000000000e+01 2.000000000000000000e+00
1.620000000000000000e+02 2.000000000000000000e+00
1.630000000000000000e+02 2.000000000000000000e+00
1.640000000000000000e+02 2.000000000000000000e+00
1.660000000000000000e+02 2.000000000000000000e+00
1.670000000000000000e+02 2.000000000000000000e+00
1.680000000000000000e+02 2.000000000000000000e+00
2.890000000000000000e+02 2.000000000000000000e+00
2.900000000000000000e+02 2.000000000000000000e+00
2.910000000000000000e+02 2.000000000000000000e+00
2.920000000000000000e+02 2.000000000000000000e+00
2.930000000000000000e+02 2.000000000000000000e+00
2.940000000000000000e+02 2.000000000000000000e+00
2.950000000000000000e+02 2.000000000000000000e+00
4.170000000000000000e+02 2.000000000000000000e+00
4.180000000000000000e+02 2.000000000000000000e+00
4.190000000000000000e+02 2.000000000000000000e+00
4.200000000000000000e+02 2.000000000000000000e+00
4.210000000000000000e+02 2.000000000000000000e+00
4.220000000000000000e+02 2.000000000000000000e+00
5.440000000000000000e+02 2.000000000000000000e+00
5.450000000000000000e+02 2.000000000000000000e+00
5.460000000000000000e+02 2.000000000000000000e+00
5.470000000000000000e+02 2.000000000000000000e+00
5.480000000000000000e+02 2.000000000000000000e+00
5.490000000000000000e+02 2.000000000000000000e+00
6.710000000000000000e+02 2.000000000000000000e+00
6.720000000000000000e+02 2.000000000000000000e+00
6.730000000000000000e+02 2.000000000000000000e+00
6.740000000000000000e+02 2.000000000000000000e+00
6.750000000000000000e+02 2.000000000000000000e+00
6.760000000000000000e+02 2.000000000000000000e+00
6.770000000000000000e+02 2.000000000000000000e+00
7.990000000000000000e+02 2.000000000000000000e+00
8.000000000000000000e+02 2.000000000000000000e+00
8.010000000000000000e+02 2.000000000000000000e+00
8.020000000000000000e+02 2.000000000000000000e+00
8.030000000000000000e+02 2.000000000000000000e+00
8.040000000000000000e+02 2.000000000000000000e+00
9.260000000000000000e+02 2.000000000000000000e+00
9.270000000000000000e+02 2.000000000000000000e+00
9.280000000000000000e+02 2.000000000000000000e+00
9.300000000000000000e+02 2.000000000000000000e+00
9.310000000000000000e+02 2.000000000000000000e+00
9.320000000000000000e+02 2.000000000000000000e+00
3.500000000000000000e+01 3.000000000000000000e+00
3.600000000000000000e+01 3.000000000000000000e+00
3.700000000000000000e+01 3.000000000000000000e+00
3.800000000000000000e+01 3.000000000000000000e+00
3.900000000000000000e+01 3.000000000000000000e+00
4.000000000000000000e+01 3.000000000000000000e+00
4.100000000000000000e+01 3.000000000000000000e+00
1.620000000000000000e+02 3.000000000000000000e+00
1.630000000000000000e+02 3.000000000000000000e+00
1.640000000000000000e+02 3.000000000000000000e+00
1.650000000000000000e+02 3.000000000000000000e+00
1.660000000000000000e+02 3.000000000000000000e+00
1.670000000000000000e+02 3.000000000000000000e+00
1.680000000000000000e+02 3.000000000000000000e+00
2.890000000000000000e+02 3.000000000000000000e+00
2.900000000000000000e+02 3.000000000000000000e+00
2.910000000000000000e+02 3.000000000000000000e+00
2.920000000000000000e+02 3.000000000000000000e+00
2.930000000000000000e+02 3.000000000000000000e+00
2.940000000000000000e+02 3.000000000000000000e+00
2.950000000000000000e+02 3.000000000000000000e+00
4.160000000000000000e+02 3.000000000000000000e+00
4.170000000000000000e+02 3.000000000000000000e+00
4.180000000000000000e+02 3.000000000000000000e+00
4.190000000000000000e+02 3.000000000000000000e+00
4.200000000000000000e+02 3.000000000000000000e+00
4.210000000000000000e+02 3.000000000000000000e+00
4.220000000000000000e+02 3.000000000000000000e+00
5.440000000000000000e+02 3.000000000000000000e+00
5.450000000000000000e+02 3.000000000000000000e+00
5.460000000000000000e+02 3.000000000000000000e+00
5.470000000000000000e+02 3.000000000000000000e+00
5.480000000000000000e+02 3.000000000000000000e+00
5.490000000000000000e+02 3.000000000000000000e+00
6.710000000000000000e+02 3.000000000000000000e+00
6.720000000000000000e+02 3.000000000000000000e+00
6.730000000000000000e+02 3.000000000000000000e+00
6.740000000000000000e+02 3.000000000000000000e+00
6.750000000000000000e+02 3.000000000000000000e+00
6.760000000000000000e+02 3.000000000000000000e+00
6.770000000000000000e+02 3.000000000000000000e+00
7.990000000000000000e+02 3.000000000000000000e+00
8.000000000000000000e+02 3.000000000000000000e+00
8.010000000000000000e+02 3.000000000000000000e+00
8.020000000000000000e+02 3.000000000000000000e+00
8.030000000000000000e+02 3.000000000000000000e+00
8.040000000000000000e+02 3.000000000000000000e+00
9.260000000000000000e+02 3.000000000000000000e+00
9.270000000000000000e+02 3.000000000000000000e+00
9.280000000000000000e+02 3.000000000000000000e+00
9.290000000000000000e+02 3.000000000000000000e+00
9.300000000000000000e+02 3.000000000000000000e+00
9.310000000000000000e+02 3.000000000000000000e+00
9.320000000000000000e+02 3.000000000000000000e+00
3.500000000000000000e+01 4.000000000000000000e+00
3.600000000000000000e+01 4.000000000000000000e+00
3.700000000000000000e+01 4.000000000000000000e+00
3.800000000000000000e+01 4.000000000000000000e+00
3.900000000000000000e+01 4.000000000000000000e+00
4.000000000000000000e+01 4.000000000000000000e+00
4.100000000000000000e+01 4.000000000000000000e+00
1.620000000000000000e+02 4.000000000000000000e+00
1.630000000000000000e+02 4.000000000000000000e+00
1.640000000000000000e+02 4.000000000000000000e+00
1.650000000000000000e+02 4.000000000000000000e+00
1.660000000000000000e+02 4.000000000000000000e+00
1.670000000000000000e+02 4.000000000000000000e+00
1.680000000000000000e+02 4.000000000000000000e+00
2.890000000000000000e+02 4.000000000000000000e+00
2.900000000000000000e+02 4.000000000000000000e+00
2.910000000000000000e+02 4.000000000000000000e+00
2.920000000000000000e+02 4.000000000000000000e+00
2.930000000000000000e+02 4.000000000000000000e+00
2.940000000000000000e+02 4.000000000000000000e+00
2.950000000000000000e+02 4.000000000000000000e+00
4.170000000000000000e+02 4.000000000000000000e+00
4.180000000000000000e+02 4.000000000000000000e+00
4.190000000000000000e+02 4.000000000000000000e+00
4.200000000000000000e+02 4.000000000000000000e+00
4.210000000000000000e+02 4.000000000000000000e+00
4.220000000000000000e+02 4.000000000000000000e+00
5.440000000000000000e+02 4.000000000000000000e+00
5.450000000000000000e+02 4.000000000000000000e+00
5.460000000000000000e+02 4.000000000000000000e+00
5.470000000000000000e+02 4.000000000000000000e+00
5.480000000000000000e+02 4.000000000000000000e+00
5.490000000000000000e+02 4.000000000000000000e+00
6.710000000000000000e+02 4.000000000000000000e+00
6.720000000000000000e+02 4.000000000000000000e+00
6.730000000000000000e+02 4.000000000000000000e+00
6.740000000000000000e+02 4.000000000000000000e+00
6.750000000000000000e+02 4.000000000000000000e+00
6.760000000000000000e+02 4.000000000000000000e+00
6.770000000000000000e+02 4.000000000000000000e+00
7.990000000000000000e+02 4.000000000000000000e+00
8.000000000000000000e+02 4.000000000000000000e+00
8.010000000000000000e+02 4.000000000000000000e+00
8.020000000000000000e+02 4.000000000000000000e+00
8.030000000000000000e+02 4.000000000000000000e+00
8.040000000000000000e+02 4.000000000000000000e+00
9.260000000000000000e+02 4.000000000000000000e+00
9.270000000000000000e+02 4.000000000000000000e+00
9.280000000000000000e+02 4.000000000000000000e+00
9.290000000000000000e+02 4.000000000000000000e+00
9.300000000000000000e+02 4.000000000000000000e+00
9.310000000000000000e+02 4.000000000000000000e+00
9.320000000000000000e+02 4.000000000000000000e+00
3.500000000000000000e+01 5.000000000000000000e+00
3.600000000000000000e+01 5.000000000000000000e+00
3.700000000000000000e+01 5.000000000000000000e+00
3.800000000000000000e+01 5.000000000000000000e+00
3.900000000000000000e+01 5.000000000000000000e+00
4.000000000000000000e+01 5.000000000000000000e+00
1.630000000000000000e+02 5.000000000000000000e+00
1.640000000000000000e+02 5.000000000000000000e+00
1.650000000000000000e+02 5.000000000000000000e+00
1.660000000000000000e+02 5.000000000000000000e+00
1.670000000000000000e+02 5.000000000000000000e+00
1.680000000000000000e+02 5.000000000000000000e+00
2.890000000000000000e+02 5.000000000000000000e+00
2.900000000000000000e+02 5.000000000000000000e+00
2.910000000000000000e+02 5.000000000000000000e+00
2.920000000000000000e+02 5.000000000000000000e+00
2.930000000000000000e+02 5.000000000000000000e+00
2.940000000000000000e+02 5.000000000000000000e+00
2.950000000000000000e+02 5.000000000000000000e+00
4.170000000000000000e+02 5.000000000000000000e+00
4.180000000000000000e+02 5.000000000000000000e+00
4.190000000000000000e+02 5.000000000000000000e+00
4.200000000000000000e+02 5.000000000000000000e+00
4.210000000000000000e+02 5.000000000000000000e+00
4.220000000000000000e+02 5.000000000000000000e+00
5.440000000000000000e+02 5.000000000000000000e+00
5.450000000000000000e+02 5.000000000000000000e+00
5.460000000000000000e+02 5.000000000000000000e+00
5.470000000000000000e+02 5.000000000000000000e+00
5.480000000000000000e+02 5.000000000000000000e+00
5.490000000000000000e+02 5.000000000000000000e+00
6.710000000000000000e+02 5.000000000000000000e+00
6.720000000000000000e+02 5.000000000000000000e+00
6.730000000000000000e+02 5.000000000000000000e+00
6.740000000000000000e+02 5.000000000000000000e+00
6.750000000000000000e+02 5.000000000000000000e+00
6.760000000000000000e+02 5.000000000000000000e+00
7.990000000000000000e+02 5.000000000000000000e+00
8.000000000000000000e+02 5.000000000000000000e+00
8.010000000000000000e+02 5.000000000000000000e+00
8.020000000000000000e+02 5.000000000000000000e+00
8.030000000000000000e+02 5.000000000000000000e+00
8.040000000000000000e+02 5.000000000000000000e+00
9.260000000000000000e+02 5.000000000000000000e+00
9.270000000000000000e+02 5.000000000000000000e+00
9.280000000000000000e+02 5.000000000000000000e+00
9.290000000000000000e+02 5.000000000000000000e+00
9.300000000000000000e+02 5.000000000000000000e+00
9.310000000000000000e+02 5.000000000000000000e+00
9.320000000000000000e+02 5.000000000000000000e+00
3.500000000000000000e+01 6.000000000000000000e+00
3.600000000000000000e+01 6.000000000000000000e+00
3.700000000000000000e+01 6.000000000000000000e+00
3.800000000000000000e+01 6.000000000000000000e+00
3.900000000000000000e+01 6.000000000000000000e+00
4.000000000000000000e+01 6.000000000000000000e+00
1.630000000000000000e+02 6.000000000000000000e+00
1.640000000000000000e+02 6.000000000000000000e+00
1.650000000000000000e+02 6.000000000000000000e+00
1.660000000000000000e+02 6.000000000000000000e+00
1.670000000000000000e+02 6.000000000000000000e+00
1.680000000000000000e+02 6.000000000000000000e+00
2.900000000000000000e+02 6.000000000000000000e+00
2.910000000000000000e+02 6.000000000000000000e+00
2.920000000000000000e+02 6.000000000000000000e+00
2.930000000000000000e+02 6.000000000000000000e+00
2.940000000000000000e+02 6.000000000000000000e+00
2.950000000000000000e+02 6.000000000000000000e+00
4.170000000000000000e+02 6.000000000000000000e+00
4.180000000000000000e+02 6.000000000000000000e+00
4.190000000000000000e+02 6.000000000000000000e+00
4.200000000000000000e+02 6.000000000000000000e+00
4.210000000000000000e+02 6.000000000000000000e+00
4.220000000000000000e+02 6.000000000000000000e+00
5.440000000000000000e+02 6.000000000000000000e+00
5.450000000000000000e+02 6.000000000000000000e+00
5.460000000000000000e+02 6.000000000000000000e+00
5.470000000000000000e+02 6.000000000000000000e+00
5.480000000000000000e+02 6.000000000000000000e+00
5.490000000000000000e+02 6.000000000000000000e+00
6.720000000000000000e+02 6.000000000000000000e+00
6.730000000000000000e+02 6.000000000000000000e+00
6.740000000000000000e+02 6.000000000000000000e+00
6.750000000000000000e+02 6.000000000000000000e+00
6.760000000000000000e+02 6.000000000000000000e+00
7.990000000000000000e+02 6.000000000000000000e+00
8.000000000000000000e+02 6.000000000000000000e+00
8.010000000000000000e+02 6.000000000000000000e+00
8.020000000000000000e+02 6.000000000000000000e+00
8.030000000000000000e+02 6.000000000000000000e+00
9.260000000000000000e+02 6.000000000000000000e+00
9.270000000000000000e+02 6.000000000000000000e+00
9.280000000000000000e+02 6.000000000000000000e+00
9.290000000000000000e+02 6.000000000000000000e+00
9.300000000000000000e+02 6.000000000000000000e+00
9.310000000000000000e+02 6.000000000000000000e+00
9.320000000000000000e+02 6.000000000000000000e+00
3.500000000000000000e+01 7.000000000000000000e+00
3.600000000000000000e+01 7.000000000000000000e+00
3.700000000000000000e+01 7.000000000000000000e+00
3.800000000000000000e+01 7.000000000000000000e+00
3.900000000000000000e+01 7.000000000000000000e+00
4.000000000000000000e+01 7.000000000000000000e+00
1.630000000000000000e+02 7.000000000000000000e+00
1.640000000000000000e+02 7.000000000000000000e+00
1.650000000000000000e+02 7.000000000000000000e+00
1.660000000000000000e+02 7.000000000000000000e+00
1.670000000000000000e+02 7.000000000000000000e+00
1.680000000000000000e+02 7.000000000000000000e+00
2.900000000000000000e+02 7.000000000000000000e+00
2.910000000000000000e+02 7.000000000000000000e+00
2.920000000000000000e+02 7.000000000000000000e+00
2.930000000000000000e+02 7.000000000000000000e+00
2.940000000000000000e+02 7.000000000000000000e+00
2.950000000000000000e+02 7.000000000000000000e+00
4.170000000000000000e+02 7.000000000000000000e+00
4.180000000000000000e+02 7.000000000000000000e+00
4.190000000000000000e+02 7.000000000000000000e+00
4.200000000000000000e+02 7.000000000000000000e+00
4.210000000000000000e+02 7.000000000000000000e+00
5.440000000000000000e+02 7.000000000000000000e+00
5.450000000000000000e+02 7.000000000000000000e+00
5.460000000000000000e+02 7.000000000000000000e+00
5.470000000000000000e+02 7.000000000000000000e+00
5.480000000000000000e+02 7.000000000000000000e+00
5.490000000000000000e+02 7.000000000000000000e+00
6.720000000000000000e+02 7.000000000000000000e+00
6.730000000000000000e+02 7.000000000000000000e+00
6.740000000000000000e+02 7.000000000000000000e+00
6.750000000000000000e+02 7.000000000000000000e+00
6.760000000000000000e+02 7.000000000000000000e+00
7.990000000000000000e+02 7.000000000000000000e+00
8.000000000000000000e+02 7.000000000000000000e+00
8.010000000000000000e+02 7.000000000000000000e+00
8.020000000000000000e+02 7.000000000000000000e+00
8.030000000000000000e+02 7.000000000000000000e+00
9.260000000000000000e+02 7.000000000000000000e+00
9.270000000000000000e+02 7.000000000000000000e+00
9.280000000000000000e+02 7.000000000000000000e+00
9.290000000000000000e+02 7.000000000000000000e+00
9.300000000000000000e+02 7.000000000000000000e+00
9.310000000000000000e+02 7.000000000000000000e+00
3.500000000000000000e+01 8.000000000000000000e+00
3.600000000000000000e+01 8.000000000000000000e+00
3.700000000000000000e+01 8.000000000000000000e+00
3.800000000000000000e+01 8.000000000000000000e+00
3.900000000000000000e+01 8.000000000000000000e+00
4.000000000000000000e+01 8.000000000000000000e+00
1.630000000000000000e+02 8.000000000000000000e+00
1.640000000000000000e+02 8.000000000000000000e+00
1.650000000000000000e+02 8.000000000000000000e+00
1.660000000000000000e+02 8.000000000000000000e+00
1.670000000000000000e+02 8.000000000000000000e+00
1.680000000000000000e+02 8.000000000000000000e+00
2.900000000000000000e+02 8.000000000000000000e+00
2.910000000000000000e+02 8.000000000000000000e+00
2.920000000000000000e+02 8.000000000000000000e+00
2.930000000000000000e+02 8.000000000000000000e+00
2.940000000000000000e+02 8.000000000000000000e+00
2.950000000000000000e+02 8.000000000000000000e+00
4.170000000000000000e+02 8.000000000000000000e+00
4.180000000000000000e+02 8.000000000000000000e+00
4.190000000000000000e+02 8.000000000000000000e+00
4.200000000000000000e+02 8.000000000000000000e+00
5.440000000000000000e+02 8.000000000000000000e+00
5.450000000000000000e+02 8.000000000000000000e+00
5.460000000000000000e+02 8.000000000000000000e+00
5.470000000000000000e+02 8.000000000000000000e+00
5.480000000000000000e+02 8.000000000000000000e+00
5.490000000000000000e+02 8.000000000000000000e+00
6.720000000000000000e+02 8.000000000000000000e+00
6.730000000000000000e+02 8.000000000000000000e+00
6.740000000000000000e+02 8.000000000000000000e+00
6.750000000000000000e+02 8.000000000000000000e+00
6.760000000000000000e+02 8.000000000000000000e+00
8.000000000000000000e+02 8.000000000000000000e+00
8.010000000000000000e+02 8.000000000000000000e+00
8.020000000000000000e+02 8.000000000000000000e+00
9.260000000000000000e+02 8.000000000000000000e+00
9.270000000000000000e+02 8.000000000000000000e+00
9.280000000000000000e+02 8.000000000000000000e+00
9.290000000000000000e+02 8.000000000000000000e+00
9.300000000000000000e+02 8.000000000000000000e+00
9.310000000000000000e+02 8.000000000000000000e+00
3.500000000000000000e+01 9.000000000000000000e+00
3.600000000000000000e+01 9.000000000000000000e+00
3.700000000000000000e+01 9.000000000000000000e+00
3.800000000000000000e+01 9.000000000000000000e+00
3.900000000000000000e+01 9.000000000000000000e+00
1.630000000000000000e+02 9.000000000000000000e+00
1.640000000000000000e+02 9.000000000000000000e+00
1.650000000000000000e+02 9.000000000000000000e+00
1.660000000000000000e+02 9.000000000000000000e+00
1.670000000000000000e+02 9.000000000000000000e+00
2.900000000000000000e+02 9.000000000000000000e+00
2.910000000000000000e+02 9.000000000000000000e+00
2.920000000000000000e+02 9.000000000000000000e+00
2.930000000000000000e+02 9.000000000000000000e+00
2.940000000000000000e+02 9.000000000000000000e+00
4.170000000000000000e+02 9.000000000000000000e+00
4.180000000000000000e+02 9.000000000000000000e+00
4.190000000000000000e+02 9.000000000000000000e+00
4.200000000000000000e+02 9.000000000000000000e+00
5.450000000000000000e+02 9.000000000000000000e+00
5.460000000000000000e+02 9.000000000000000000e+00
5.470000000000000000e+02 9.000000000000000000e+00
5.480000000000000000e+02 9.000000000000000000e+00
5.490000000000000000e+02 9.000000000000000000e+00
6.720000000000000000e+02 9.000000000000000000e+00
6.730000000000000000e+02 9.000000000000000000e+00
6.740000000000000000e+02 9.000000000000000000e+00
6.750000000000000000e+02 9.000000000000000000e+00
9.260000000000000000e+02 9.000000000000000000e+00
9.270000000000000000e+02 9.000000000000000000e+00
9.280000000000000000e+02 9.000000000000000000e+00
9.290000000000000000e+02 9.000000000000000000e+00
9.300000000000000000e+02 9.000000000000000000e+00
9.310000000000000000e+02 9.000000000000000000e+00
3.600000000000000000e+01 1.000000000000000000e+01
3.700000000000000000e+01 1.000000000000000000e+01
3.800000000000000000e+01 1.000000000000000000e+01
3.900000000000000000e+01 1.000000000000000000e+01
1.630000000000000000e+02 1.000000000000000000e+01
1.640000000000000000e+02 1.000000000000000000e+01
1.650000000000000000e+02 1.000000000000000000e+01
2.900000000000000000e+02 1.000000000000000000e+01
2.910000000000000000e+02 1.000000000000000000e+01
2.920000000000000000e+02 1.000000000000000000e+01
2.930000000000000000e+02 1.000000000000000000e+01
2.940000000000000000e+02 1.000000000000000000e+01
4.180000000000000000e+02 1.000000000000000000e+01
4.190000000000000000e+02 1.000000000000000000e+01
5.460000000000000000e+02 1.000000000000000000e+01
5.470000000000000000e+02 1.000000000000000000e+01
5.480000000000000000e+02 1.000000000000000000e+01
5.490000000000000000e+02 1.000000000000000000e+01
9.260000000000000000e+02 1.000000000000000000e+01
9.270000000000000000e+02 1.000000000000000000e+01
9.280000000000000000e+02 1.000000000000000000e+01
9.290000000000000000e+02 1.000000000000000000e+01
9.300000000000000000e+02 1.000000000000000000e+01
9.310000000000000000e+02 1.000000000000000000e+01
3.700000000000000000e+01 1.100000000000000000e+01
3.800000000000000000e+01 1.100000000000000000e+01
5.470000000000000000e+02 1.100000000000000000e+01
5.480000000000000000e+02 1.100000000000000000e+01
9.270000000000000000e+02 1.100000000000000000e+01
9.280000000000000000e+02 1.100000000000000000e+01
9.290000000000000000e+02 1.100000000000000000e+01
9.300000000000000000e+02 1.100000000000000000e+01
9.310000000000000000e+02 1.100000000000000000e+01
9.270000000000000000e+02 1.200000000000000000e+01
9.280000000000000000e+02 1.200000000000000000e+01
9.290000000000000000e+02 1.200000000000000000e+01
9.300000000000000000e+02 1.200000000000000000e+01
9.310000000000000000e+02 1.200000000000000000e+01
9.290000000000000000e+02 1.300000000000000000e+01
9.300000000000000000e+02 1.300000000000000000e+01
9.270000000000000000e+02 6.300000000000000000e+01
9.280000000000000000e+02 6.300000000000000000e+01
9.260000000000000000e+02 6.400000000000000000e+01
9.270000000000000000e+02 6.400000000000000000e+01
9.280000000000000000e+02 6.400000000000000000e+01
9.290000000000000000e+02 6.400000000000000000e+01
9.260000000000000000e+02 6.500000000000000000e+01
9.270000000000000000e+02 6.500000000000000000e+01
9.280000000000000000e+02 6.500000000000000000e+01
9.290000000000000000e+02 6.500000000000000000e+01
1.630000000000000000e+02 6.600000000000000000e+01
1.640000000000000000e+02 6.600000000000000000e+01
6.720000000000000000e+02 6.600000000000000000e+01
6.730000000000000000e+02 6.600000000000000000e+01
7.990000000000000000e+02 6.600000000000000000e+01
8.000000000000000000e+02 6.600000000000000000e+01
9.260000000000000000e+02 6.600000000000000000e+01
9.270000000000000000e+02 6.600000000000000000e+01
9.280000000000000000e+02 6.600000000000000000e+01
9.290000000000000000e+02 6.600000000000000000e+01
1.620000000000000000e+02 6.700000000000000000e+01
1.630000000000000000e+02 6.700000000000000000e+01
1.640000000000000000e+02 6.700000000000000000e+01
1.650000000000000000e+02 6.700000000000000000e+01
6.710000000000000000e+02 6.700000000000000000e+01
6.720000000000000000e+02 6.700000000000000000e+01
6.730000000000000000e+02 6.700000000000000000e+01
6.740000000000000000e+02 6.700000000000000000e+01
7.990000000000000000e+02 6.700000000000000000e+01
8.000000000000000000e+02 6.700000000000000000e+01
8.010000000000000000e+02 6.700000000000000000e+01
9.260000000000000000e+02 6.700000000000000000e+01
9.270000000000000000e+02 6.700000000000000000e+01
9.280000000000000000e+02 6.700000000000000000e+01
9.290000000000000000e+02 6.700000000000000000e+01
1.620000000000000000e+02 6.800000000000000000e+01
1.630000000000000000e+02 6.800000000000000000e+01
1.640000000000000000e+02 6.800000000000000000e+01
1.650000000000000000e+02 6.800000000000000000e+01
2.910000000000000000e+02 6.800000000000000000e+01
6.710000000000000000e+02 6.800000000000000000e+01
6.720000000000000000e+02 6.800000000000000000e+01
6.730000000000000000e+02 6.800000000000000000e+01
6.740000000000000000e+02 6.800000000000000000e+01
7.990000000000000000e+02 6.800000000000000000e+01
8.000000000000000000e+02 6.800000000000000000e+01
8.010000000000000000e+02 6.800000000000000000e+01
9.260000000000000000e+02 6.800000000000000000e+01
9.270000000000000000e+02 6.800000000000000000e+01
9.280000000000000000e+02 6.800000000000000000e+01
9.290000000000000000e+02 6.800000000000000000e+01
3.600000000000000000e+01 6.900000000000000000e+01
3.700000000000000000e+01 6.900000000000000000e+01
1.620000000000000000e+02 6.900000000000000000e+01
1.630000000000000000e+02 6.900000000000000000e+01
1.640000000000000000e+02 6.900000000000000000e+01
1.650000000000000000e+02 6.900000000000000000e+01
2.900000000000000000e+02 6.900000000000000000e+01
2.910000000000000000e+02 6.900000000000000000e+01
2.920000000000000000e+02 6.900000000000000000e+01
6.710000000000000000e+02 6.900000000000000000e+01
6.720000000000000000e+02 6.900000000000000000e+01
6.730000000000000000e+02 6.900000000000000000e+01
6.740000000000000000e+02 6.900000000000000000e+01
7.990000000000000000e+02 6.900000000000000000e+01
8.000000000000000000e+02 6.900000000000000000e+01
8.010000000000000000e+02 6.900000000000000000e+01
9.260000000000000000e+02 6.900000000000000000e+01
9.270000000000000000e+02 6.900000000000000000e+01
9.280000000000000000e+02 6.900000000000000000e+01
9.290000000000000000e+02 6.900000000000000000e+01
3.500000000000000000e+01 7.000000000000000000e+01
3.600000000000000000e+01 7.000000000000000000e+01
3.700000000000000000e+01 7.000000000000000000e+01
3.800000000000000000e+01 7.000000000000000000e+01
1.620000000000000000e+02 7.000000000000000000e+01
1.630000000000000000e+02 7.000000000000000000e+01
1.640000000000000000e+02 7.000000000000000000e+01
1.650000000000000000e+02 7.000000000000000000e+01
2.890000000000000000e+02 7.000000000000000000e+01
2.900000000000000000e+02 7.000000000000000000e+01
2.910000000000000000e+02 7.000000000000000000e+01
2.920000000000000000e+02 7.000000000000000000e+01
5.440000000000000000e+02 7.000000000000000000e+01
5.450000000000000000e+02 7.000000000000000000e+01
5.460000000000000000e+02 7.000000000000000000e+01
6.710000000000000000e+02 7.000000000000000000e+01
6.720000000000000000e+02 7.000000000000000000e+01
6.730000000000000000e+02 7.000000000000000000e+01
6.740000000000000000e+02 7.000000000000000000e+01
7.980000000000000000e+02 7.000000000000000000e+01
7.990000000000000000e+02 7.000000000000000000e+01
8.000000000000000000e+02 7.000000000000000000e+01
8.010000000000000000e+02 7.000000000000000000e+01
9.250000000000000000e+02 7.000000000000000000e+01
9.260000000000000000e+02 7.000000000000000000e+01
9.270000000000000000e+02 7.000000000000000000e+01
9.280000000000000000e+02 7.000000000000000000e+01
9.290000000000000000e+02 7.000000000000000000e+01
3.500000000000000000e+01 7.100000000000000000e+01
3.600000000000000000e+01 7.100000000000000000e+01
3.700000000000000000e+01 7.100000000000000000e+01
3.800000000000000000e+01 7.100000000000000000e+01
1.620000000000000000e+02 7.100000000000000000e+01
1.630000000000000000e+02 7.100000000000000000e+01
1.640000000000000000e+02 7.100000000000000000e+01
1.650000000000000000e+02 7.100000000000000000e+01
1.660000000000000000e+02 7.100000000000000000e+01
2.890000000000000000e+02 7.100000000000000000e+01
2.900000000000000000e+02 7.100000000000000000e+01
2.910000000000000000e+02 7.100000000000000000e+01
2.920000000000000000e+02 7.100000000000000000e+01
5.440000000000000000e+02 7.100000000000000000e+01
5.450000000000000000e+02 7.100000000000000000e+01
5.460000000000000000e+02 7.100000000000000000e+01
6.710000000000000000e+02 7.100000000000000000e+01
6.720000000000000000e+02 7.100000000000000000e+01
6.730000000000000000e+02 7.100000000000000000e+01
6.740000000000000000e+02 7.100000000000000000e+01
7.980000000000000000e+02 7.100000000000000000e+01
7.990000000000000000e+02 7.100000000000000000e+01
8.000000000000000000e+02 7.100000000000000000e+01
8.010000000000000000e+02 7.100000000000000000e+01
8.020000000000000000e+02 7.100000000000000000e+01
9.250000000000000000e+02 7.100000000000000000e+01
9.260000000000000000e+02 7.100000000000000000e+01
9.270000000000000000e+02 7.100000000000000000e+01
9.280000000000000000e+02 7.100000000000000000e+01
9.290000000000000000e+02 7.100000000000000000e+01
3.500000000000000000e+01 7.200000000000000000e+01
3.600000000000000000e+01 7.200000000000000000e+01
3.700000000000000000e+01 7.200000000000000000e+01
3.800000000000000000e+01 7.200000000000000000e+01
1.620000000000000000e+02 7.200000000000000000e+01
1.630000000000000000e+02 7.200000000000000000e+01
1.640000000000000000e+02 7.200000000000000000e+01
1.650000000000000000e+02 7.200000000000000000e+01
1.660000000000000000e+02 7.200000000000000000e+01
2.890000000000000000e+02 7.200000000000000000e+01
2.900000000000000000e+02 7.200000000000000000e+01
2.910000000000000000e+02 7.200000000000000000e+01
2.920000000000000000e+02 7.200000000000000000e+01
5.440000000000000000e+02 7.200000000000000000e+01
5.450000000000000000e+02 7.200000000000000000e+01
5.460000000000000000e+02 7.200000000000000000e+01
5.470000000000000000e+02 7.200000000000000000e+01
6.710000000000000000e+02 7.200000000000000000e+01
6.720000000000000000e+02 7.200000000000000000e+01
6.730000000000000000e+02 7.200000000000000000e+01
6.740000000000000000e+02 7.200000000000000000e+01
7.980000000000000000e+02 7.200000000000000000e+01
7.990000000000000000e+02 7.200000000000000000e+01
8.000000000000000000e+02 7.200000000000000000e+01
8.010000000000000000e+02 7.200000000000000000e+01
8.020000000000000000e+02 7.200000000000000000e+01
9.250000000000000000e+02 7.200000000000000000e+01
9.260000000000000000e+02 7.200000000000000000e+01
9.270000000000000000e+02 7.200000000000000000e+01
9.280000000000000000e+02 7.200000000000000000e+01
9.290000000000000000e+02 7.200000000000000000e+01
3.500000000000000000e+01 7.300000000000000000e+01
3.600000000000000000e+01 7.300000000000000000e+01
3.700000000000000000e+01 7.300000000000000000e+01
3.800000000000000000e+01 7.300000000000000000e+01
1.620000000000000000e+02 7.300000000000000000e+01
1.630000000000000000e+02 7.300000000000000000e+01
1.640000000000000000e+02 7.300000000000000000e+01
1.650000000000000000e+02 7.300000000000000000e+01
1.660000000000000000e+02 7.300000000000000000e+01
2.890000000000000000e+02 7.300000000000000000e+01
2.900000000000000000e+02 7.300000000000000000e+01
2.910000000000000000e+02 7.300000000000000000e+01
2.920000000000000000e+02 7.300000000000000000e+01
5.440000000000000000e+02 7.300000000000000000e+01
5.450000000000000000e+02 7.300000000000000000e+01
5.460000000000000000e+02 7.300000000000000000e+01
5.470000000000000000e+02 7.300000000000000000e+01
6.710000000000000000e+02 7.300000000000000000e+01
6.720000000000000000e+02 7.300000000000000000e+01
6.730000000000000000e+02 7.300000000000000000e+01
6.740000000000000000e+02 7.300000000000000000e+01
7.980000000000000000e+02 7.300000000000000000e+01
7.990000000000000000e+02 7.300000000000000000e+01
8.000000000000000000e+02 7.300000000000000000e+01
8.010000000000000000e+02 7.300000000000000000e+01
8.020000000000000000e+02 7.300000000000000000e+01
9.250000000000000000e+02 7.300000000000000000e+01
9.260000000000000000e+02 7.300000000000000000e+01
9.270000000000000000e+02 7.300000000000000000e+01
9.280000000000000000e+02 7.300000000000000000e+01
9.290000000000000000e+02 7.300000000000000000e+01
3.500000000000000000e+01 7.400000000000000000e+01
3.600000000000000000e+01 7.400000000000000000e+01
3.700000000000000000e+01 7.400000000000000000e+01
3.800000000000000000e+01 7.400000000000000000e+01
1.620000000000000000e+02 7.400000000000000000e+01
1.630000000000000000e+02 7.400000000000000000e+01
1.640000000000000000e+02 7.400000000000000000e+01
1.650000000000000000e+02 7.400000000000000000e+01
1.660000000000000000e+02 7.400000000000000000e+01
2.890000000000000000e+02 7.400000000000000000e+01
2.900000000000000000e+02 7.400000000000000000e+01
2.910000000000000000e+02 7.400000000000000000e+01
2.920000000000000000e+02 7.400000000000000000e+01
5.440000000000000000e+02 7.400000000000000000e+01
5.450000000000000000e+02 7.400000000000000000e+01
5.460000000000000000e+02 7.400000000000000000e+01
5.470000000000000000e+02 7.400000000000000000e+01
6.710000000000000000e+02 7.400000000000000000e+01
6.720000000000000000e+02 7.400000000000000000e+01
6.730000000000000000e+02 7.400000000000000000e+01
6.740000000000000000e+02 7.400000000000000000e+01
7.980000000000000000e+02 7.400000000000000000e+01
7.990000000000000000e+02 7.400000000000000000e+01
8.000000000000000000e+02 7.400000000000000000e+01
8.010000000000000000e+02 7.400000000000000000e+01
8.020000000000000000e+02 7.400000000000000000e+01
9.250000000000000000e+02 7.400000000000000000e+01
9.260000000000000000e+02 7.400000000000000000e+01
9.270000000000000000e+02 7.400000000000000000e+01
9.280000000000000000e+02 7.400000000000000000e+01
9.290000000000000000e+02 7.400000000000000000e+01
3.500000000000000000e+01 7.500000000000000000e+01
3.600000000000000000e+01 7.500000000000000000e+01
3.700000000000000000e+01 7.500000000000000000e+01
3.800000000000000000e+01 7.500000000000000000e+01
1.610000000000000000e+02 7.500000000000000000e+01
1.620000000000000000e+02 7.500000000000000000e+01
1.630000000000000000e+02 7.500000000000000000e+01
1.640000000000000000e+02 7.500000000000000000e+01
1.650000000000000000e+02 7.500000000000000000e+01
1.660000000000000000e+02 7.500000000000000000e+01
2.890000000000000000e+02 7.500000000000000000e+01
2.900000000000000000e+02 7.500000000000000000e+01
2.910000000000000000e+02 7.500000000000000000e+01
2.920000000000000000e+02 7.500000000000000000e+01
4.170000000000000000e+02 7.500000000000000000e+01
4.180000000000000000e+02 7.500000000000000000e+01
5.430000000000000000e+02 7.500000000000000000e+01
5.440000000000000000e+02 7.500000000000000000e+01
5.450000000000000000e+02 7.500000000000000000e+01
5.460000000000000000e+02 7.500000000000000000e+01
5.470000000000000000e+02 7.500000000000000000e+01
6.700000000000000000e+02 7.500000000000000000e+01
6.710000000000000000e+02 7.500000000000000000e+01
6.720000000000000000e+02 7.500000000000000000e+01
6.730000000000000000e+02 7.500000000000000000e+01
6.740000000000000000e+02 7.500000000000000000e+01
7.980000000000000000e+02 7.500000000000000000e+01
7.990000000000000000e+02 7.500000000000000000e+01
8.000000000000000000e+02 7.500000000000000000e+01
8.010000000000000000e+02 7.500000000000000000e+01
8.020000000000000000e+02 7.500000000000000000e+01
9.250000000000000000e+02 7.500000000000000000e+01
9.260000000000000000e+02 7.500000000000000000e+01
9.270000000000000000e+02 7.500000000000000000e+01
9.280000000000000000e+02 7.500000000000000000e+01
9.290000000000000000e+02 7.500000000000000000e+01
3.400000000000000000e+01 7.600000000000000000e+01
3.500000000000000000e+01 7.600000000000000000e+01
3.600000000000000000e+01 7.600000000000000000e+01
3.700000000000000000e+01 7.600000000000000000e+01
3.800000000000000000e+01 7.600000000000000000e+01
1.610000000000000000e+02 7.600000000000000000e+01
1.620000000000000000e+02 7.600000000000000000e+01
1.630000000000000000e+02 7.600000000000000000e+01
1.640000000000000000e+02 7.600000000000000000e+01
1.650000000000000000e+02 7.600000000000000000e+01
1.660000000000000000e+02 7.600000000000000000e+01
2.890000000000000000e+02 7.600000000000000000e+01
2.900000000000000000e+02 7.600000000000000000e+01
2.910000000000000000e+02 7.600000000000000000e+01
2.920000000000000000e+02 7.600000000000000000e+01
4.170000000000000000e+02 7.600000000000000000e+01
4.180000000000000000e+02 7.600000000000000000e+01
4.190000000000000000e+02 7.600000000000000000e+01
5.430000000000000000e+02 7.600000000000000000e+01
5.440000000000000000e+02 7.600000000000000000e+01
5.450000000000000000e+02 7.600000000000000000e+01
5.460000000000000000e+02 7.600000000000000000e+01
5.470000000000000000e+02 7.600000000000000000e+01
6.700000000000000000e+02 7.600000000000000000e+01
6.710000000000000000e+02 7.600000000000000000e+01
6.720000000000000000e+02 7.600000000000000000e+01
6.730000000000000000e+02 7.600000000000000000e+01
6.740000000000000000e+02 7.600000000000000000e+01
6.750000000000000000e+02 7.600000000000000000e+01
7.980000000000000000e+02 7.600000000000000000e+01
7.990000000000000000e+02 7.600000000000000000e+01
8.000000000000000000e+02 7.600000000000000000e+01
8.010000000000000000e+02 7.600000000000000000e+01
8.020000000000000000e+02 7.600000000000000000e+01
9.250000000000000000e+02 7.600000000000000000e+01
9.260000000000000000e+02 7.600000000000000000e+01
9.270000000000000000e+02 7.600000000000000000e+01
9.280000000000000000e+02 7.600000000000000000e+01
9.290000000000000000e+02 7.600000000000000000e+01
9.300000000000000000e+02 7.600000000000000000e+01
3.400000000000000000e+01 7.700000000000000000e+01
3.500000000000000000e+01 7.700000000000000000e+01
3.600000000000000000e+01 7.700000000000000000e+01
3.700000000000000000e+01 7.700000000000000000e+01
3.800000000000000000e+01 7.700000000000000000e+01
1.610000000000000000e+02 7.700000000000000000e+01
1.620000000000000000e+02 7.700000000000000000e+01
1.630000000000000000e+02 7.700000000000000000e+01
1.640000000000000000e+02 7.700000000000000000e+01
1.650000000000000000e+02 7.700000000000000000e+01
1.660000000000000000e+02 7.700000000000000000e+01
2.890000000000000000e+02 7.700000000000000000e+01
2.900000000000000000e+02 7.700000000000000000e+01
2.910000000000000000e+02 7.700000000000000000e+01
2.920000000000000000e+02 7.700000000000000000e+01
4.160000000000000000e+02 7.700000000000000000e+01
4.170000000000000000e+02 7.700000000000000000e+01
4.180000000000000000e+02 7.700000000000000000e+01
4.190000000000000000e+02 7.700000000000000000e+01
5.430000000000000000e+02 7.700000000000000000e+01
5.440000000000000000e+02 7.700000000000000000e+01
5.450000000000000000e+02 7.700000000000000000e+01
5.460000000000000000e+02 7.700000000000000000e+01
5.470000000000000000e+02 7.700000000000000000e+01
6.700000000000000000e+02 7.700000000000000000e+01
6.710000000000000000e+02 7.700000000000000000e+01
6.720000000000000000e+02 7.700000000000000000e+01
6.730000000000000000e+02 7.700000000000000000e+01
6.740000000000000000e+02 7.700000000000000000e+01
6.750000000000000000e+02 7.700000000000000000e+01
7.980000000000000000e+02 7.700000000000000000e+01
7.990000000000000000e+02 7.700000000000000000e+01
8.000000000000000000e+02 7.700000000000000000e+01
8.010000000000000000e+02 7.700000000000000000e+01
8.020000000000000000e+02 7.700000000000000000e+01
9.250000000000000000e+02 7.700000000000000000e+01
9.260000000000000000e+02 7.700000000000000000e+01
9.270000000000000000e+02 7.700000000000000000e+01
9.280000000000000000e+02 7.700000000000000000e+01
9.290000000000000000e+02 7.700000000000000000e+01
9.300000000000000000e+02 7.700000000000000000e+01
3.400000000000000000e+01 7.800000000000000000e+01
3.500000000000000000e+01 7.800000000000000000e+01
3.600000000000000000e+01 7.800000000000000000e+01
3.700000000000000000e+01 7.800000000000000000e+01
3.800000000000000000e+01 7.800000000000000000e+01
1.610000000000000000e+02 7.800000000000000000e+01
1.620000000000000000e+02 7.800000000000000000e+01
1.630000000000000000e+02 7.800000000000000000e+01
1.640000000000000000e+02 7.800000000000000000e+01
1.650000000000000000e+02 7.800000000000000000e+01
1.660000000000000000e+02 7.800000000000000000e+01
2.880000000000000000e+02 7.800000000000000000e+01
2.890000000000000000e+02 7.800000000000000000e+01
2.900000000000000000e+02 7.800000000000000000e+01
2.910000000000000000e+02 7.800000000000000000e+01
2.920000000000000000e+02 7.800000000000000000e+01
2.930000000000000000e+02 7.800000000000000000e+01
4.160000000000000000e+02 7.800000000000000000e+01
4.170000000000000000e+02 7.800000000000000000e+01
4.180000000000000000e+02 7.800000000000000000e+01
4.190000000000000000e+02 7.800000000000000000e+01
5.430000000000000000e+02 7.800000000000000000e+01
5.440000000000000000e+02 7.800000000000000000e+01
5.450000000000000000e+02 7.800000000000000000e+01
5.460000000000000000e+02 7.800000000000000000e+01
5.470000000000000000e+02 7.800000000000000000e+01
6.700000000000000000e+02 7.800000000000000000e+01
6.710000000000000000e+02 7.800000000000000000e+01
6.720000000000000000e+02 7.800000000000000000e+01
6.730000000000000000e+02 7.800000000000000000e+01
6.740000000000000000e+02 7.800000000000000000e+01
6.750000000000000000e+02 7.800000000000000000e+01
7.980000000000000000e+02 7.800000000000000000e+01
7.990000000000000000e+02 7.800000000000000000e+01
8.000000000000000000e+02 7.800000000000000000e+01
8.010000000000000000e+02 7.800000000000000000e+01
8.020000000000000000e+02 7.800000000000000000e+01
9.250000000000000000e+02 7.800000000000000000e+01
9.260000000000000000e+02 7.800000000000000000e+01
9.270000000000000000e+02 7.800000000000000000e+01
9.280000000000000000e+02 7.800000000000000000e+01
9.290000000000000000e+02 7.800000000000000000e+01
9.300000000000000000e+02 7.800000000000000000e+01
3.400000000000000000e+01 7.900000000000000000e+01
3.500000000000000000e+01 7.900000000000000000e+01
3.600000000000000000e+01 7.900000000000000000e+01
3.700000000000000000e+01 7.900000000000000000e+01
3.800000000000000000e+01 7.900000000000000000e+01
1.610000000000000000e+02 7.900000000000000000e+01
1.620000000000000000e+02 7.900000000000000000e+01
1.630000000000000000e+02 7.900000000000000000e+01
1.640000000000000000e+02 7.900000000000000000e+01
1.650000000000000000e+02 7.900000000000000000e+01
1.660000000000000000e+02 7.900000000000000000e+01
2.880000000000000000e+02 7.900000000000000000e+01
2.890000000000000000e+02 7.900000000000000000e+01
2.900000000000000000e+02 7.900000000000000000e+01
2.910000000000000000e+02 7.900000000000000000e+01
2.920000000000000000e+02 7.900000000000000000e+01
2.930000000000000000e+02 7.900000000000000000e+01
4.160000000000000000e+02 7.900000000000000000e+01
4.170000000000000000e+02 7.900000000000000000e+01
4.180000000000000000e+02 7.900000000000000000e+01
4.190000000000000000e+02 7.900000000000000000e+01
5.430000000000000000e+02 7.900000000000000000e+01
5.440000000000000000e+02 7.900000000000000000e+01
5.450000000000000000e+02 7.900000000000000000e+01
5.460000000000000000e+02 7.900000000000000000e+01
5.470000000000000000e+02 7.900000000000000000e+01
6.700000000000000000e+02 7.900000000000000000e+01
6.710000000000000000e+02 7.900000000000000000e+01
6.720000000000000000e+02 7.900000000000000000e+01
6.730000000000000000e+02 7.900000000000000000e+01
6.740000000000000000e+02 7.900000000000000000e+01
6.750000000000000000e+02 7.900000000000000000e+01
7.980000000000000000e+02 7.900000000000000000e+01
7.990000000000000000e+02 7.900000000000000000e+01
8.000000000000000000e+02 7.900000000000000000e+01
8.010000000000000000e+02 7.900000000000000000e+01
8.020000000000000000e+02 7.900000000000000000e+01
9.250000000000000000e+02 7.900000000000000000e+01
9.260000000000000000e+02 7.900000000000000000e+01
9.270000000000000000e+02 7.900000000000000000e+01
9.280000000000000000e+02 7.900000000000000000e+01
9.290000000000000000e+02 7.900000000000000000e+01
9.300000000000000000e+02 7.900000000000000000e+01
3.400000000000000000e+01 8.000000000000000000e+01
3.500000000000000000e+01 8.000000000000000000e+01
3.600000000000000000e+01 8.000000000000000000e+01
3.700000000000000000e+01 8.000000000000000000e+01
3.800000000000000000e+01 8.000000000000000000e+01
1.610000000000000000e+02 8.000000000000000000e+01
1.620000000000000000e+02 8.000000000000000000e+01
1.630000000000000000e+02 8.000000000000000000e+01
1.640000000000000000e+02 8.000000000000000000e+01
1.650000000000000000e+02 8.000000000000000000e+01
1.660000000000000000e+02 8.000000000000000000e+01
2.880000000000000000e+02 8.000000000000000000e+01
2.890000000000000000e+02 8.000000000000000000e+01
2.900000000000000000e+02 8.000000000000000000e+01
2.910000000000000000e+02 8.000000000000000000e+01
2.920000000000000000e+02 8.000000000000000000e+01
2.930000000000000000e+02 8.000000000000000000e+01
4.160000000000000000e+02 8.000000000000000000e+01
4.170000000000000000e+02 8.000000000000000000e+01
4.180000000000000000e+02 8.000000000000000000e+01
4.190000000000000000e+02 8.000000000000000000e+01
4.200000000000000000e+02 8.000000000000000000e+01
5.430000000000000000e+02 8.000000000000000000e+01
5.440000000000000000e+02 8.000000000000000000e+01
5.450000000000000000e+02 8.000000000000000000e+01
5.460000000000000000e+02 8.000000000000000000e+01
5.470000000000000000e+02 8.000000000000000000e+01
6.700000000000000000e+02 8.000000000000000000e+01
6.710000000000000000e+02 8.000000000000000000e+01
6.720000000000000000e+02 8.000000000000000000e+01
6.730000000000000000e+02 8.000000000000000000e+01
6.740000000000000000e+02 8.000000000000000000e+01
6.750000000000000000e+02 8.000000000000000000e+01
7.970000000000000000e+02 8.000000000000000000e+01
7.980000000000000000e+02 8.000000000000000000e+01
7.990000000000000000e+02 8.000000000000000000e+01
8.000000000000000000e+02 8.000000000000000000e+01
8.010000000000000000e+02 8.000000000000000000e+01
8.020000000000000000e+02 8.000000000000000000e+01
9.250000000000000000e+02 8.000000000000000000e+01
9.260000000000000000e+02 8.000000000000000000e+01
9.270000000000000000e+02 8.000000000000000000e+01
9.280000000000000000e+02 8.000000000000000000e+01
9.290000000000000000e+02 8.000000000000000000e+01
9.300000000000000000e+02 8.000000000000000000e+01
3.400000000000000000e+01 8.100000000000000000e+01
3.500000000000000000e+01 8.100000000000000000e+01
3.600000000000000000e+01 8.100000000000000000e+01
3.700000000000000000e+01 8.100000000000000000e+01
3.800000000000000000e+01 8.100000000000000000e+01
1.610000000000000000e+02 8.100000000000000000e+01
1.620000000000000000e+02 8.100000000000000000e+01
1.630000000000000000e+02 8.100000000000000000e+01
1.640000000000000000e+02 8.100000000000000000e+01
1.650000000000000000e+02 8.100000000000000000e+01
1.660000000000000000e+02 8.100000000000000000e+01
2.880000000000000000e+02 8.100000000000000000e+01
2.890000000000000000e+02 8.100000000000000000e+01
2.900000000000000000e+02 8.100000000000000000e+01
2.910000000000000000e+02 8.100000000000000000e+01
2.920000000000000000e+02 8.100000000000000000e+01
2.930000000000000000e+02 8.100000000000000000e+01
4.160000000000000000e+02 8.100000000000000000e+01
4.170000000000000000e+02 8.100000000000000000e+01
4.180000000000000000e+02 8.100000000000000000e+01
4.190000000000000000e+02 8.100000000000000000e+01
4.200000000000000000e+02 8.100000000000000000e+01
5.430000000000000000e+02 8.100000000000000000e+01
5.440000000000000000e+02 8.100000000000000000e+01
5.450000000000000000e+02 8.100000000000000000e+01
5.460000000000000000e+02 8.100000000000000000e+01
5.470000000000000000e+02 8.100000000000000000e+01
6.700000000000000000e+02 8.100000000000000000e+01
6.710000000000000000e+02 8.100000000000000000e+01
6.720000000000000000e+02 8.100000000000000000e+01
6.730000000000000000e+02 8.100000000000000000e+01
6.740000000000000000e+02 8.100000000000000000e+01
6.750000000000000000e+02 8.100000000000000000e+01
7.970000000000000000e+02 8.100000000000000000e+01
7.980000000000000000e+02 8.100000000000000000e+01
7.990000000000000000e+02 8.100000000000000000e+01
8.000000000000000000e+02 8.100000000000000000e+01
8.010000000000000000e+02 8.100000000000000000e+01
8.020000000000000000e+02 8.100000000000000000e+01
9.240000000000000000e+02 8.100000000000000000e+01
9.250000000000000000e+02 8.100000000000000000e+01
9.260000000000000000e+02 8.100000000000000000e+01
9.270000000000000000e+02 8.100000000000000000e+01
9.280000000000000000e+02 8.100000000000000000e+01
9.290000000000000000e+02 8.100000000000000000e+01
9.300000000000000000e+02 8.100000000000000000e+01
3.400000000000000000e+01 8.200000000000000000e+01
3.500000000000000000e+01 8.200000000000000000e+01
3.600000000000000000e+01 8.200000000000000000e+01
3.700000000000000000e+01 8.200000000000000000e+01
3.800000000000000000e+01 8.200000000000000000e+01
3.900000000000000000e+01 8.200000000000000000e+01
1.610000000000000000e+02 8.200000000000000000e+01
1.620000000000000000e+02 8.200000000000000000e+01
1.630000000000000000e+02 8.200000000000000000e+01
1.640000000000000000e+02 8.200000000000000000e+01
1.650000000000000000e+02 8.200000000000000000e+01
1.660000000000000000e+02 8.200000000000000000e+01
2.880000000000000000e+02 8.200000000000000000e+01
2.890000000000000000e+02 8.200000000000000000e+01
2.900000000000000000e+02 8.200000000000000000e+01
2.910000000000000000e+02 8.200000000000000000e+01
2.920000000000000000e+02 8.200000000000000000e+01
2.930000000000000000e+02 8.200000000000000000e+01
4.160000000000000000e+02 8.200000000000000000e+01
4.170000000000000000e+02 8.200000000000000000e+01
4.180000000000000000e+02 8.200000000000000000e+01
4.190000000000000000e+02 8.200000000000000000e+01
4.200000000000000000e+02 8.200000000000000000e+01
5.430000000000000000e+02 8.200000000000000000e+01
5.440000000000000000e+02 8.200000000000000000e+01
5.450000000000000000e+02 8.200000000000000000e+01
5.460000000000000000e+02 8.200000000000000000e+01
5.470000000000000000e+02 8.200000000000000000e+01
6.700000000000000000e+02 8.200000000000000000e+01
6.710000000000000000e+02 8.200000000000000000e+01
6.720000000000000000e+02 8.200000000000000000e+01
6.730000000000000000e+02 8.200000000000000000e+01
6.740000000000000000e+02 8.200000000000000000e+01
6.750000000000000000e+02 8.200000000000000000e+01
7.970000000000000000e+02 8.200000000000000000e+01
7.980000000000000000e+02 8.200000000000000000e+01
7.990000000000000000e+02 8.200000000000000000e+01
8.000000000000000000e+02 8.200000000000000000e+01
8.010000000000000000e+02 8.200000000000000000e+01
8.020000000000000000e+02 8.200000000000000000e+01
9.240000000000000000e+02 8.200000000000000000e+01
9.250000000000000000e+02 8.200000000000000000e+01
9.260000000000000000e+02 8.200000000000000000e+01
9.270000000000000000e+02 8.200000000000000000e+01
9.280000000000000000e+02 8.200000000000000000e+01
9.290000000000000000e+02 8.200000000000000000e+01
9.300000000000000000e+02 8.200000000000000000e+01
3.400000000000000000e+01 8.300000000000000000e+01
3.500000000000000000e+01 8.300000000000000000e+01
3.600000000000000000e+01 8.300000000000000000e+01
3.700000000000000000e+01 8.300000000000000000e+01
3.800000000000000000e+01 8.300000000000000000e+01
3.900000000000000000e+01 8.300000000000000000e+01
1.610000000000000000e+02 8.300000000000000000e+01
1.620000000000000000e+02 8.300000000000000000e+01
1.630000000000000000e+02 8.300000000000000000e+01
1.640000000000000000e+02 8.300000000000000000e+01
1.650000000000000000e+02 8.300000000000000000e+01
1.660000000000000000e+02 8.300000000000000000e+01
2.880000000000000000e+02 8.300000000000000000e+01
2.890000000000000000e+02 8.300000000000000000e+01
2.900000000000000000e+02 8.300000000000000000e+01
2.910000000000000000e+02 8.300000000000000000e+01
2.920000000000000000e+02 8.300000000000000000e+01
2.930000000000000000e+02 8.300000000000000000e+01
4.160000000000000000e+02 8.300000000000000000e+01
4.170000000000000000e+02 8.300000000000000000e+01
4.180000000000000000e+02 8.300000000000000000e+01
4.190000000000000000e+02 8.300000000000000000e+01
4.200000000000000000e+02 8.300000000000000000e+01
5.430000000000000000e+02 8.300000000000000000e+01
5.440000000000000000e+02 8.300000000000000000e+01
5.450000000000000000e+02 8.300000000000000000e+01
5.460000000000000000e+02 8.300000000000000000e+01
5.470000000000000000e+02 8.300000000000000000e+01
6.700000000000000000e+02 8.300000000000000000e+01
6.710000000000000000e+02 8.300000000000000000e+01
6.720000000000000000e+02 8.300000000000000000e+01
6.730000000000000000e+02 8.300000000000000000e+01
6.740000000000000000e+02 8.300000000000000000e+01
6.750000000000000000e+02 8.300000000000000000e+01
7.970000000000000000e+02 8.300000000000000000e+01
7.980000000000000000e+02 8.300000000000000000e+01
7.990000000000000000e+02 8.300000000000000000e+01
8.000000000000000000e+02 8.300000000000000000e+01
8.010000000000000000e+02 8.300000000000000000e+01
8.020000000000000000e+02 8.300000000000000000e+01
9.240000000000000000e+02 8.300000000000000000e+01
9.250000000000000000e+02 8.300000000000000000e+01
9.260000000000000000e+02 8.300000000000000000e+01
9.270000000000000000e+02 8.300000000000000000e+01
9.280000000000000000e+02 8.300000000000000000e+01
9.290000000000000000e+02 8.300000000000000000e+01
9.300000000000000000e+02 8.300000000000000000e+01
3.400000000000000000e+01 8.400000000000000000e+01
3.500000000000000000e+01 8.400000000000000000e+01
3.600000000000000000e+01 8.400000000000000000e+01
3.700000000000000000e+01 8.400000000000000000e+01
3.800000000000000000e+01 8.400000000000000000e+01
3.900000000000000000e+01 8.400000000000000000e+01
1.610000000000000000e+02 8.400000000000000000e+01
1.620000000000000000e+02 8.400000000000000000e+01
1.630000000000000000e+02 8.400000000000000000e+01
1.640000000000000000e+02 8.400000000000000000e+01
1.650000000000000000e+02 8.400000000000000000e+01
1.660000000000000000e+02 8.400000000000000000e+01
2.880000000000000000e+02 8.400000000000000000e+01
2.890000000000000000e+02 8.400000000000000000e+01
2.900000000000000000e+02 8.400000000000000000e+01
2.910000000000000000e+02 8.400000000000000000e+01
2.920000000000000000e+02 8.400000000000000000e+01
2.930000000000000000e+02 8.400000000000000000e+01
4.150000000000000000e+02 8.400000000000000000e+01
4.160000000000000000e+02 8.400000000000000000e+01
4.170000000000000000e+02 8.400000000000000000e+01
4.180000000000000000e+02 8.400000000000000000e+01
4.190000000000000000e+02 8.400000000000000000e+01
4.200000000000000000e+02 8.400000000000000000e+01
5.420000000000000000e+02 8.400000000000000000e+01
5.430000000000000000e+02 8.400000000000000000e+01
5.440000000000000000e+02 8.400000000000000000e+01
5.450000000000000000e+02 8.400000000000000000e+01
5.460000000000000000e+02 8.400000000000000000e+01
5.470000000000000000e+02 8.400000000000000000e+01
6.700000000000000000e+02 8.400000000000000000e+01
6.710000000000000000e+02 8.400000000000000000e+01
6.720000000000000000e+02 8.400000000000000000e+01
6.730000000000000000e+02 8.400000000000000000e+01
6.740000000000000000e+02 8.400000000000000000e+01
6.750000000000000000e+02 8.400000000000000000e+01
7.970000000000000000e+02 8.400000000000000000e+01
7.980000000000000000e+02 8.400000000000000000e+01
7.990000000000000000e+02 8.400000000000000000e+01
8.000000000000000000e+02 8.400000000000000000e+01
8.010000000000000000e+02 8.400000000000000000e+01
8.020000000000000000e+02 8.400000000000000000e+01
9.240000000000000000e+02 8.400000000000000000e+01
9.250000000000000000e+02 8.400000000000000000e+01
9.260000000000000000e+02 8.400000000000000000e+01
9.270000000000000000e+02 8.400000000000000000e+01
9.280000000000000000e+02 8.400000000000000000e+01
9.290000000000000000e+02 8.400000000000000000e+01
9.300000000000000000e+02 8.400000000000000000e+01
3.400000000000000000e+01 8.500000000000000000e+01
3.500000000000000000e+01 8.500000000000000000e+01
3.600000000000000000e+01 8.500000000000000000e+01
3.700000000000000000e+01 8.500000000000000000e+01
3.800000000000000000e+01 8.500000000000000000e+01
3.900000000000000000e+01 8.500000000000000000e+01
1.610000000000000000e+02 8.500000000000000000e+01
1.620000000000000000e+02 8.500000000000000000e+01
1.630000000000000000e+02 8.500000000000000000e+01
1.640000000000000000e+02 8.500000000000000000e+01
1.650000000000000000e+02 8.500000000000000000e+01
1.660000000000000000e+02 8.500000000000000000e+01
2.880000000000000000e+02 8.500000000000000000e+01
2.890000000000000000e+02 8.500000000000000000e+01
2.900000000000000000e+02 8.500000000000000000e+01
2.910000000000000000e+02 8.500000000000000000e+01
2.920000000000000000e+02 8.500000000000000000e+01
2.930000000000000000e+02 8.500000000000000000e+01
4.150000000000000000e+02 8.500000000000000000e+01
4.160000000000000000e+02 8.500000000000000000e+01
4.170000000000000000e+02 8.500000000000000000e+01
4.180000000000000000e+02 8.500000000000000000e+01
4.190000000000000000e+02 8.500000000000000000e+01
4.200000000000000000e+02 8.500000000000000000e+01
5.420000000000000000e+02 8.500000000000000000e+01
5.430000000000000000e+02 8.500000000000000000e+01
5.440000000000000000e+02 8.500000000000000000e+01
5.450000000000000000e+02 8.500000000000000000e+01
5.460000000000000000e+02 8.500000000000000000e+01
5.470000000000000000e+02 8.500000000000000000e+01
6.700000000000000000e+02 8.500000000000000000e+01
6.710000000000000000e+02 8.500000000000000000e+01
6.720000000000000000e+02 8.500000000000000000e+01
6.730000000000000000e+02 8.500000000000000000e+01
6.740000000000000000e+02 8.500000000000000000e+01
6.750000000000000000e+02 8.500000000000000000e+01
7.970000000000000000e+02 8.500000000000000000e+01
7.980000000000000000e+02 8.500000000000000000e+01
7.990000000000000000e+02 8.500000000000000000e+01
8.000000000000000000e+02 8.500000000000000000e+01
8.010000000000000000e+02 8.500000000000000000e+01
8.020000000000000000e+02 8.500000000000000000e+01
9.240000000000000000e+02 8.500000000000000000e+01
9.250000000000000000e+02 8.500000000000000000e+01
9.260000000000000000e+02 8.500000000000000000e+01
9.270000000000000000e+02 8.500000000000000000e+01
9.280000000000000000e+02 8.500000000000000000e+01
9.290000000000000000e+02 8.500000000000000000e+01
9.300000000000000000e+02 8.500000000000000000e+01
3.400000000000000000e+01 8.600000000000000000e+01
3.500000000000000000e+01 8.600000000000000000e+01
3.600000000000000000e+01 8.600000000000000000e+01
3.700000000000000000e+01 8.600000000000000000e+01
3.800000000000000000e+01 8.600000000000000000e+01
3.900000000000000000e+01 8.600000000000000000e+01
1.610000000000000000e+02 8.600000000000000000e+01
1.620000000000000000e+02 8.600000000000000000e+01
1.630000000000000000e+02 8.600000000000000000e+01
1.640000000000000000e+02 8.600000000000000000e+01
1.650000000000000000e+02 8.600000000000000000e+01
1.660000000000000000e+02 8.600000000000000000e+01
1.670000000000000000e+02 8.600000000000000000e+01
2.880000000000000000e+02 8.600000000000000000e+01
2.890000000000000000e+02 8.600000000000000000e+01
2.900000000000000000e+02 8.600000000000000000e+01
2.910000000000000000e+02 8.600000000000000000e+01
2.920000000000000000e+02 8.600000000000000000e+01
2.930000000000000000e+02 8.600000000000000000e+01
4.150000000000000000e+02 8.600000000000000000e+01
4.160000000000000000e+02 8.600000000000000000e+01
4.170000000000000000e+02 8.600000000000000000e+01
4.180000000000000000e+02 8.600000000000000000e+01
4.190000000000000000e+02 8.600000000000000000e+01
4.200000000000000000e+02 8.600000000000000000e+01
5.420000000000000000e+02 8.600000000000000000e+01
5.430000000000000000e+02 8.600000000000000000e+01
5.440000000000000000e+02 8.600000000000000000e+01
5.450000000000000000e+02 8.600000000000000000e+01
5.460000000000000000e+02 8.600000000000000000e+01
5.470000000000000000e+02 8.600000000000000000e+01
5.480000000000000000e+02 8.600000000000000000e+01
6.700000000000000000e+02 8.600000000000000000e+01
6.710000000000000000e+02 8.600000000000000000e+01
6.720000000000000000e+02 8.600000000000000000e+01
6.730000000000000000e+02 8.600000000000000000e+01
6.740000000000000000e+02 8.600000000000000000e+01
6.750000000000000000e+02 8.600000000000000000e+01
7.970000000000000000e+02 8.600000000000000000e+01
7.980000000000000000e+02 8.600000000000000000e+01
7.990000000000000000e+02 8.600000000000000000e+01
8.000000000000000000e+02 8.600000000000000000e+01
8.010000000000000000e+02 8.600000000000000000e+01
8.020000000000000000e+02 8.600000000000000000e+01
8.030000000000000000e+02 8.600000000000000000e+01
9.240000000000000000e+02 8.600000000000000000e+01
9.250000000000000000e+02 8.600000000000000000e+01
9.260000000000000000e+02 8.600000000000000000e+01
9.270000000000000000e+02 8.600000000000000000e+01
9.280000000000000000e+02 8.600000000000000000e+01
9.290000000000000000e+02 8.600000000000000000e+01
9.300000000000000000e+02 8.600000000000000000e+01
3.400000000000000000e+01 8.700000000000000000e+01
3.500000000000000000e+01 8.700000000000000000e+01
3.600000000000000000e+01 8.700000000000000000e+01
3.700000000000000000e+01 8.700000000000000000e+01
3.800000000000000000e+01 8.700000000000000000e+01
3.900000000000000000e+01 8.700000000000000000e+01
1.600000000000000000e+02 8.700000000000000000e+01
1.610000000000000000e+02 8.700000000000000000e+01
1.620000000000000000e+02 8.700000000000000000e+01
1.630000000000000000e+02 8.700000000000000000e+01
1.640000000000000000e+02 8.700000000000000000e+01
1.650000000000000000e+02 8.700000000000000000e+01
1.660000000000000000e+02 8.700000000000000000e+01
1.670000000000000000e+02 8.700000000000000000e+01
2.880000000000000000e+02 8.700000000000000000e+01
2.890000000000000000e+02 8.700000000000000000e+01
2.900000000000000000e+02 8.700000000000000000e+01
2.910000000000000000e+02 8.700000000000000000e+01
2.920000000000000000e+02 8.700000000000000000e+01
2.930000000000000000e+02 8.700000000000000000e+01
4.150000000000000000e+02 8.700000000000000000e+01
4.160000000000000000e+02 8.700000000000000000e+01
4.170000000000000000e+02 8.700000000000000000e+01
4.180000000000000000e+02 8.700000000000000000e+01
4.190000000000000000e+02 8.700000000000000000e+01
4.200000000000000000e+02 8.700000000000000000e+01
5.420000000000000000e+02 8.700000000000000000e+01
5.430000000000000000e+02 8.700000000000000000e+01
5.440000000000000000e+02 8.700000000000000000e+01
5.450000000000000000e+02 8.700000000000000000e+01
5.460000000000000000e+02 8.700000000000000000e+01
5.470000000000000000e+02 8.700000000000000000e+01
5.480000000000000000e+02 8.700000000000000000e+01
6.690000000000000000e+02 8.700000000000000000e+01
6.700000000000000000e+02 8.700000000000000000e+01
6.710000000000000000e+02 8.700000000000000000e+01
6.720000000000000000e+02 8.700000000000000000e+01
6.730000000000000000e+02 8.700000000000000000e+01
6.740000000000000000e+02 8.700000000000000000e+01
6.750000000000000000e+02 8.700000000000000000e+01
7.970000000000000000e+02 8.700000000000000000e+01
7.980000000000000000e+02 8.700000000000000000e+01
7.990000000000000000e+02 8.700000000000000000e+01
8.000000000000000000e+02 8.700000000000000000e+01
8.010000000000000000e+02 8.700000000000000000e+01
8.020000000000000000e+02 8.700000000000000000e+01
8.030000000000000000e+02 8.700000000000000000e+01
9.240000000000000000e+02 8.700000000000000000e+01
9.250000000000000000e+02 8.700000000000000000e+01
9.260000000000000000e+02 8.700000000000000000e+01
9.270000000000000000e+02 8.700000000000000000e+01
9.280000000000000000e+02 8.700000000000000000e+01
9.290000000000000000e+02 8.700000000000000000e+01
9.300000000000000000e+02 8.700000000000000000e+01
3.300000000000000000e+01 8.800000000000000000e+01
3.400000000000000000e+01 8.800000000000000000e+01
3.500000000000000000e+01 8.800000000000000000e+01
3.600000000000000000e+01 8.800000000000000000e+01
3.700000000000000000e+01 8.800000000000000000e+01
3.800000000000000000e+01 8.800000000000000000e+01
3.900000000000000000e+01 8.800000000000000000e+01
1.600000000000000000e+02 8.800000000000000000e+01
1.610000000000000000e+02 8.800000000000000000e+01
1.620000000000000000e+02 8.800000000000000000e+01
1.630000000000000000e+02 8.800000000000000000e+01
1.640000000000000000e+02 8.800000000000000000e+01
1.650000000000000000e+02 8.800000000000000000e+01
1.660000000000000000e+02 8.800000000000000000e+01
1.670000000000000000e+02 8.800000000000000000e+01
2.880000000000000000e+02 8.800000000000000000e+01
2.890000000000000000e+02 8.800000000000000000e+01
2.900000000000000000e+02 8.800000000000000000e+01
2.910000000000000000e+02 8.800000000000000000e+01
2.920000000000000000e+02 8.800000000000000000e+01
2.930000000000000000e+02 8.800000000000000000e+01
4.150000000000000000e+02 8.800000000000000000e+01
4.160000000000000000e+02 8.800000000000000000e+01
4.170000000000000000e+02 8.800000000000000000e+01
4.180000000000000000e+02 8.800000000000000000e+01
4.190000000000000000e+02 8.800000000000000000e+01
4.200000000000000000e+02 8.800000000000000000e+01
5.420000000000000000e+02 8.800000000000000000e+01
5.430000000000000000e+02 8.800000000000000000e+01
5.440000000000000000e+02 8.800000000000000000e+01
5.450000000000000000e+02 8.800000000000000000e+01
5.460000000000000000e+02 8.800000000000000000e+01
5.470000000000000000e+02 8.800000000000000000e+01
5.480000000000000000e+02 8.800000000000000000e+01
6.690000000000000000e+02 8.800000000000000000e+01
6.700000000000000000e+02 8.800000000000000000e+01
6.710000000000000000e+02 8.800000000000000000e+01
6.720000000000000000e+02 8.800000000000000000e+01
6.730000000000000000e+02 8.800000000000000000e+01
6.740000000000000000e+02 8.800000000000000000e+01
6.750000000000000000e+02 8.800000000000000000e+01
6.760000000000000000e+02 8.800000000000000000e+01
7.970000000000000000e+02 8.800000000000000000e+01
7.980000000000000000e+02 8.800000000000000000e+01
7.990000000000000000e+02 8.800000000000000000e+01
8.000000000000000000e+02 8.800000000000000000e+01
8.010000000000000000e+02 8.800000000000000000e+01
8.020000000000000000e+02 8.800000000000000000e+01
8.030000000000000000e+02 8.800000000000000000e+01
9.240000000000000000e+02 8.800000000000000000e+01
9.250000000000000000e+02 8.800000000000000000e+01
9.260000000000000000e+02 8.800000000000000000e+01
9.280000000000000000e+02 8.800000000000000000e+01
9.290000000000000000e+02 8.800000000000000000e+01
9.300000000000000000e+02 8.800000000000000000e+01
3.300000000000000000e+01 8.900000000000000000e+01
3.400000000000000000e+01 8.900000000000000000e+01
3.500000000000000000e+01 8.900000000000000000e+01
3.600000000000000000e+01 8.900000000000000000e+01
3.700000000000000000e+01 8.900000000000000000e+01
3.800000000000000000e+01 8.900000000000000000e+01
3.900000000000000000e+01 8.900000000000000000e+01
1.600000000000000000e+02 8.900000000000000000e+01
1.610000000000000000e+02 8.900000000000000000e+01
1.620000000000000000e+02 8.900000000000000000e+01
1.630000000000000000e+02 8.900000000000000000e+01
1.640000000000000000e+02 8.900000000000000000e+01
1.650000000000000000e+02 8.900000000000000000e+01
1.660000000000000000e+02 8.900000000000000000e+01
1.670000000000000000e+02 8.900000000000000000e+01
2.880000000000000000e+02 8.900000000000000000e+01
2.890000000000000000e+02 8.900000000000000000e+01
2.900000000000000000e+02 8.900000000000000000e+01
2.910000000000000000e+02 8.900000000000000000e+01
2.920000000000000000e+02 8.900000000000000000e+01
2.930000000000000000e+02 8.900000000000000000e+01
4.150000000000000000e+02 8.900000000000000000e+01
4.160000000000000000e+02 8.900000000000000000e+01
4.170000000000000000e+02 8.900000000000000000e+01
4.180000000000000000e+02 8.900000000000000000e+01
4.190000000000000000e+02 8.900000000000000000e+01
4.200000000000000000e+02 8.900000000000000000e+01
5.420000000000000000e+02 8.900000000000000000e+01
5.430000000000000000e+02 8.900000000000000000e+01
5.440000000000000000e+02 8.900000000000000000e+01
5.450000000000000000e+02 8.900000000000000000e+01
5.460000000000000000e+02 8.900000000000000000e+01
5.470000000000000000e+02 8.900000000000000000e+01
5.480000000000000000e+02 8.900000000000000000e+01
6.690000000000000000e+02 8.900000000000000000e+01
6.700000000000000000e+02 8.900000000000000000e+01
6.710000000000000000e+02 8.900000000000000000e+01
6.720000000000000000e+02 8.900000000000000000e+01
6.730000000000000000e+02 8.900000000000000000e+01
6.740000000000000000e+02 8.900000000000000000e+01
6.750000000000000000e+02 8.900000000000000000e+01
6.760000000000000000e+02 8.900000000000000000e+01
7.970000000000000000e+02 8.900000000000000000e+01
7.980000000000000000e+02 8.900000000000000000e+01
7.990000000000000000e+02 8.900000000000000000e+01
8.010000000000000000e+02 8.900000000000000000e+01
8.020000000000000000e+02 8.900000000000000000e+01
8.030000000000000000e+02 8.900000000000000000e+01
9.240000000000000000e+02 8.900000000000000000e+01
9.250000000000000000e+02 8.900000000000000000e+01
9.260000000000000000e+02 8.900000000000000000e+01
9.280000000000000000e+02 8.900000000000000000e+01
9.290000000000000000e+02 8.900000000000000000e+01
9.300000000000000000e+02 8.900000000000000000e+01
9.310000000000000000e+02 8.900000000000000000e+01
3.300000000000000000e+01 9.000000000000000000e+01
3.400000000000000000e+01 9.000000000000000000e+01
3.500000000000000000e+01 9.000000000000000000e+01
3.600000000000000000e+01 9.000000000000000000e+01
3.700000000000000000e+01 9.000000000000000000e+01
3.800000000000000000e+01 9.000000000000000000e+01
3.900000000000000000e+01 9.000000000000000000e+01
1.600000000000000000e+02 9.000000000000000000e+01
1.610000000000000000e+02 9.000000000000000000e+01
1.620000000000000000e+02 9.000000000000000000e+01
1.630000000000000000e+02 9.000000000000000000e+01
1.640000000000000000e+02 9.000000000000000000e+01
1.650000000000000000e+02 9.000000000000000000e+01
1.660000000000000000e+02 9.000000000000000000e+01
1.670000000000000000e+02 9.000000000000000000e+01
2.870000000000000000e+02 9.000000000000000000e+01
2.880000000000000000e+02 9.000000000000000000e+01
2.890000000000000000e+02 9.000000000000000000e+01
2.900000000000000000e+02 9.000000000000000000e+01
2.910000000000000000e+02 9.000000000000000000e+01
2.920000000000000000e+02 9.000000000000000000e+01
2.930000000000000000e+02 9.000000000000000000e+01
4.150000000000000000e+02 9.000000000000000000e+01
4.160000000000000000e+02 9.000000000000000000e+01
4.170000000000000000e+02 9.000000000000000000e+01
4.180000000000000000e+02 9.000000000000000000e+01
4.190000000000000000e+02 9.000000000000000000e+01
4.200000000000000000e+02 9.000000000000000000e+01
5.420000000000000000e+02 9.000000000000000000e+01
5.430000000000000000e+02 9.000000000000000000e+01
5.440000000000000000e+02 9.000000000000000000e+01
5.460000000000000000e+02 9.000000000000000000e+01
5.470000000000000000e+02 9.000000000000000000e+01
5.480000000000000000e+02 9.000000000000000000e+01
6.690000000000000000e+02 9.000000000000000000e+01
6.700000000000000000e+02 9.000000000000000000e+01
6.710000000000000000e+02 9.000000000000000000e+01
6.720000000000000000e+02 9.000000000000000000e+01
6.730000000000000000e+02 9.000000000000000000e+01
6.740000000000000000e+02 9.000000000000000000e+01
6.750000000000000000e+02 9.000000000000000000e+01
6.760000000000000000e+02 9.000000000000000000e+01
7.970000000000000000e+02 9.000000000000000000e+01
7.980000000000000000e+02 9.000000000000000000e+01
7.990000000000000000e+02 9.000000000000000000e+01
8.010000000000000000e+02 9.000000000000000000e+01
8.020000000000000000e+02 9.000000000000000000e+01
8.030000000000000000e+02 9.000000000000000000e+01
9.240000000000000000e+02 9.000000000000000000e+01
9.250000000000000000e+02 9.000000000000000000e+01
9.260000000000000000e+02 9.000000000000000000e+01
9.280000000000000000e+02 9.000000000000000000e+01
9.290000000000000000e+02 9.000000000000000000e+01
9.300000000000000000e+02 9.000000000000000000e+01
9.310000000000000000e+02 9.000000000000000000e+01
3.300000000000000000e+01 9.100000000000000000e+01
3.400000000000000000e+01 9.100000000000000000e+01
3.500000000000000000e+01 9.100000000000000000e+01
3.700000000000000000e+01 9.100000000000000000e+01
3.800000000000000000e+01 9.100000000000000000e+01
3.900000000000000000e+01 9.100000000000000000e+01
1.600000000000000000e+02 9.100000000000000000e+01
1.610000000000000000e+02 9.100000000000000000e+01
1.620000000000000000e+02 9.100000000000000000e+01
1.630000000000000000e+02 9.100000000000000000e+01
1.650000000000000000e+02 9.100000000000000000e+01
1.660000000000000000e+02 9.100000000000000000e+01
1.670000000000000000e+02 9.100000000000000000e+01
2.870000000000000000e+02 9.100000000000000000e+01
2.880000000000000000e+02 9.100000000000000000e+01
2.890000000000000000e+02 9.100000000000000000e+01
2.900000000000000000e+02 9.100000000000000000e+01
2.910000000000000000e+02 9.100000000000000000e+01
2.920000000000000000e+02 9.100000000000000000e+01
2.930000000000000000e+02 9.100000000000000000e+01
4.150000000000000000e+02 9.100000000000000000e+01
4.160000000000000000e+02 9.100000000000000000e+01
4.170000000000000000e+02 9.100000000000000000e+01
4.180000000000000000e+02 9.100000000000000000e+01
4.190000000000000000e+02 9.100000000000000000e+01
4.200000000000000000e+02 9.100000000000000000e+01
5.420000000000000000e+02 9.100000000000000000e+01
5.430000000000000000e+02 9.100000000000000000e+01
5.440000000000000000e+02 9.100000000000000000e+01
5.460000000000000000e+02 9.100000000000000000e+01
5.470000000000000000e+02 9.100000000000000000e+01
5.480000000000000000e+02 9.100000000000000000e+01
6.690000000000000000e+02 9.100000000000000000e+01
6.700000000000000000e+02 9.100000000000000000e+01
6.710000000000000000e+02 9.100000000000000000e+01
6.720000000000000000e+02 9.100000000000000000e+01
6.730000000000000000e+02 9.100000000000000000e+01
6.740000000000000000e+02 9.100000000000000000e+01
6.750000000000000000e+02 9.100000000000000000e+01
6.760000000000000000e+02 9.100000000000000000e+01
7.970000000000000000e+02 9.100000000000000000e+01
7.980000000000000000e+02 9.100000000000000000e+01
7.990000000000000000e+02 9.100000000000000000e+01
8.010000000000000000e+02 9.100000000000000000e+01
8.020000000000000000e+02 9.100000000000000000e+01
8.030000000000000000e+02 9.100000000000000000e+01
9.240000000000000000e+02 9.100000000000000000e+01
9.250000000000000000e+02 9.100000000000000000e+01
9.260000000000000000e+02 9.100000000000000000e+01
9.280000000000000000e+02 9.100000000000000000e+01
9.290000000000000000e+02 9.100000000000000000e+01
9.300000000000000000e+02 9.100000000000000000e+01
9.310000000000000000e+02 9.100000000000000000e+01
3.300000000000000000e+01 9.200000000000000000e+01
3.400000000000000000e+01 9.200000000000000000e+01
3.500000000000000000e+01 9.200000000000000000e+01
3.700000000000000000e+01 9.200000000000000000e+01
3.800000000000000000e+01 9.200000000000000000e+01
3.900000000000000000e+01 9.200000000000000000e+01
4.000000000000000000e+01 9.200000000000000000e+01
1.600000000000000000e+02 9.200000000000000000e+01
1.610000000000000000e+02 9.200000000000000000e+01
1.620000000000000000e+02 9.200000000000000000e+01
1.630000000000000000e+02 9.200000000000000000e+01
1.650000000000000000e+02 9.200000000000000000e+01
1.660000000000000000e+02 9.200000000000000000e+01
1.670000000000000000e+02 9.200000000000000000e+01
2.870000000000000000e+02 9.200000000000000000e+01
2.880000000000000000e+02 9.200000000000000000e+01
2.890000000000000000e+02 9.200000000000000000e+01
2.900000000000000000e+02 9.200000000000000000e+01
2.910000000000000000e+02 9.200000000000000000e+01
2.920000000000000000e+02 9.200000000000000000e+01
2.930000000000000000e+02 9.200000000000000000e+01
2.940000000000000000e+02 9.200000000000000000e+01
4.150000000000000000e+02 9.200000000000000000e+01
4.160000000000000000e+02 9.200000000000000000e+01
4.170000000000000000e+02 9.200000000000000000e+01
4.180000000000000000e+02 9.200000000000000000e+01
4.190000000000000000e+02 9.200000000000000000e+01
4.200000000000000000e+02 9.200000000000000000e+01
5.420000000000000000e+02 9.200000000000000000e+01
5.430000000000000000e+02 9.200000000000000000e+01
5.440000000000000000e+02 9.200000000000000000e+01
5.460000000000000000e+02 9.200000000000000000e+01
5.470000000000000000e+02 9.200000000000000000e+01
5.480000000000000000e+02 9.200000000000000000e+01
6.690000000000000000e+02 9.200000000000000000e+01
6.700000000000000000e+02 9.200000000000000000e+01
6.710000000000000000e+02 9.200000000000000000e+01
6.720000000000000000e+02 9.200000000000000000e+01
6.730000000000000000e+02 9.200000000000000000e+01
6.740000000000000000e+02 9.200000000000000000e+01
6.750000000000000000e+02 9.200000000000000000e+01
6.760000000000000000e+02 9.200000000000000000e+01
7.960000000000000000e+02 9.200000000000000000e+01
7.970000000000000000e+02 9.200000000000000000e+01
7.980000000000000000e+02 9.200000000000000000e+01
7.990000000000000000e+02 9.200000000000000000e+01
8.010000000000000000e+02 9.200000000000000000e+01
8.020000000000000000e+02 9.200000000000000000e+01
8.030000000000000000e+02 9.200000000000000000e+01
9.240000000000000000e+02 9.200000000000000000e+01
9.250000000000000000e+02 9.200000000000000000e+01
9.260000000000000000e+02 9.200000000000000000e+01
9.280000000000000000e+02 9.200000000000000000e+01
9.290000000000000000e+02 9.200000000000000000e+01
9.300000000000000000e+02 9.200000000000000000e+01
9.310000000000000000e+02 9.200000000000000000e+01
3.300000000000000000e+01 9.300000000000000000e+01
3.400000000000000000e+01 9.300000000000000000e+01
3.500000000000000000e+01 9.300000000000000000e+01
3.700000000000000000e+01 9.300000000000000000e+01
3.800000000000000000e+01 9.300000000000000000e+01
3.900000000000000000e+01 9.300000000000000000e+01
4.000000000000000000e+01 9.300000000000000000e+01
1.600000000000000000e+02 9.300000000000000000e+01
1.610000000000000000e+02 9.300000000000000000e+01
1.620000000000000000e+02 9.300000000000000000e+01
1.650000000000000000e+02 9.300000000000000000e+01
1.660000000000000000e+02 9.300000000000000000e+01
1.670000000000000000e+02 9.300000000000000000e+01
2.870000000000000000e+02 9.300000000000000000e+01
2.880000000000000000e+02 9.300000000000000000e+01
2.890000000000000000e+02 9.300000000000000000e+01
2.910000000000000000e+02 9.300000000000000000e+01
2.920000000000000000e+02 9.300000000000000000e+01
2.930000000000000000e+02 9.300000000000000000e+01
2.940000000000000000e+02 9.300000000000000000e+01
4.150000000000000000e+02 9.300000000000000000e+01
4.160000000000000000e+02 9.300000000000000000e+01
4.170000000000000000e+02 9.300000000000000000e+01
4.180000000000000000e+02 9.300000000000000000e+01
4.190000000000000000e+02 9.300000000000000000e+01
4.200000000000000000e+02 9.300000000000000000e+01
5.420000000000000000e+02 9.300000000000000000e+01
5.430000000000000000e+02 9.300000000000000000e+01
5.440000000000000000e+02 9.300000000000000000e+01
5.460000000000000000e+02 9.300000000000000000e+01
5.470000000000000000e+02 9.300000000000000000e+01
5.480000000000000000e+02 9.300000000000000000e+01
6.690000000000000000e+02 9.300000000000000000e+01
6.700000000000000000e+02 9.300000000000000000e+01
6.710000000000000000e+02 9.300000000000000000e+01
6.730000000000000000e+02 9.300000000000000000e+01
6.740000000000000000e+02 9.300000000000000000e+01
6.750000000000000000e+02 9.300000000000000000e+01
6.760000000000000000e+02 9.300000000000000000e+01
7.960000000000000000e+02 9.300000000000000000e+01
7.970000000000000000e+02 9.300000000000000000e+01
7.980000000000000000e+02 9.300000000000000000e+01
7.990000000000000000e+02 9.300000000000000000e+01
8.010000000000000000e+02 9.300000000000000000e+01
8.020000000000000000e+02 9.300000000000000000e+01
8.030000000000000000e+02 9.300000000000000000e+01
9.240000000000000000e+02 9.300000000000000000e+01
9.250000000000000000e+02 9.300000000000000000e+01
9.260000000000000000e+02 9.300000000000000000e+01
9.280000000000000000e+02 9.300000000000000000e+01
9.290000000000000000e+02 9.300000000000000000e+01
9.300000000000000000e+02 9.300000000000000000e+01
9.310000000000000000e+02 9.300000000000000000e+01
3.300000000000000000e+01 9.400000000000000000e+01
3.400000000000000000e+01 9.400000000000000000e+01
3.500000000000000000e+01 9.400000000000000000e+01
3.700000000000000000e+01 9.400000000000000000e+01
3.800000000000000000e+01 9.400000000000000000e+01
3.900000000000000000e+01 9.400000000000000000e+01
4.000000000000000000e+01 9.400000000000000000e+01
4.300000000000000000e+01 9.400000000000000000e+01
4.400000000000000000e+01 9.400000000000000000e+01
4.500000000000000000e+01 9.400000000000000000e+01
4.600000000000000000e+01 9.400000000000000000e+01
4.700000000000000000e+01 9.400000000000000000e+01
4.800000000000000000e+01 9.400000000000000000e+01
4.900000000000000000e+01 9.400000000000000000e+01
5.600000000000000000e+01 9.400000000000000000e+01
5.700000000000000000e+01 9.400000000000000000e+01
5.800000000000000000e+01 9.400000000000000000e+01
5.900000000000000000e+01 9.400000000000000000e+01
6.000000000000000000e+01 9.400000000000000000e+01
6.100000000000000000e+01 9.400000000000000000e+01
6.300000000000000000e+01 9.400000000000000000e+01
6.400000000000000000e+01 9.400000000000000000e+01
6.500000000000000000e+01 9.400000000000000000e+01
6.600000000000000000e+01 9.400000000000000000e+01
6.700000000000000000e+01 9.400000000000000000e+01
6.800000000000000000e+01 9.400000000000000000e+01
6.900000000000000000e+01 9.400000000000000000e+01
7.000000000000000000e+01 9.400000000000000000e+01
1.600000000000000000e+02 9.400000000000000000e+01
1.610000000000000000e+02 9.400000000000000000e+01
1.620000000000000000e+02 9.400000000000000000e+01
1.650000000000000000e+02 9.400000000000000000e+01
1.660000000000000000e+02 9.400000000000000000e+01
1.670000000000000000e+02 9.400000000000000000e+01
2.870000000000000000e+02 9.400000000000000000e+01
2.880000000000000000e+02 9.400000000000000000e+01
2.890000000000000000e+02 9.400000000000000000e+01
2.920000000000000000e+02 9.400000000000000000e+01
2.930000000000000000e+02 9.400000000000000000e+01
2.940000000000000000e+02 9.400000000000000000e+01
4.150000000000000000e+02 9.400000000000000000e+01
4.160000000000000000e+02 9.400000000000000000e+01
4.170000000000000000e+02 9.400000000000000000e+01
4.180000000000000000e+02 9.400000000000000000e+01
4.190000000000000000e+02 9.400000000000000000e+01
4.200000000000000000e+02 9.400000000000000000e+01
5.420000000000000000e+02 9.400000000000000000e+01
5.430000000000000000e+02 9.400000000000000000e+01
5.440000000000000000e+02 9.400000000000000000e+01
5.460000000000000000e+02 9.400000000000000000e+01
5.470000000000000000e+02 9.400000000000000000e+01
5.480000000000000000e+02 9.400000000000000000e+01
6.690000000000000000e+02 9.400000000000000000e+01
6.700000000000000000e+02 9.400000000000000000e+01
6.710000000000000000e+02 9.400000000000000000e+01
6.730000000000000000e+02 9.400000000000000000e+01
6.740000000000000000e+02 9.400000000000000000e+01
6.750000000000000000e+02 9.400000000000000000e+01
6.760000000000000000e+02 9.400000000000000000e+01
7.960000000000000000e+02 9.400000000000000000e+01
7.970000000000000000e+02 9.400000000000000000e+01
7.980000000000000000e+02 9.400000000000000000e+01
7.990000000000000000e+02 9.400000000000000000e+01
8.010000000000000000e+02 9.400000000000000000e+01
8.020000000000000000e+02 9.400000000000000000e+01
8.030000000000000000e+02 9.400000000000000000e+01
9.240000000000000000e+02 9.400000000000000000e+01
9.250000000000000000e+02 9.400000000000000000e+01
9.260000000000000000e+02 9.400000000000000000e+01
9.280000000000000000e+02 9.400000000000000000e+01
9.290000000000000000e+02 9.400000000000000000e+01
9.300000000000000000e+02 9.400000000000000000e+01
9.310000000000000000e+02 9.400000000000000000e+01
3.300000000000000000e+01 9.500000000000000000e+01
3.400000000000000000e+01 9.500000000000000000e+01
3.500000000000000000e+01 9.500000000000000000e+01
3.700000000000000000e+01 9.500000000000000000e+01
3.800000000000000000e+01 9.500000000000000000e+01
3.900000000000000000e+01 9.500000000000000000e+01
4.000000000000000000e+01 9.500000000000000000e+01
4.400000000000000000e+01 9.500000000000000000e+01
4.500000000000000000e+01 9.500000000000000000e+01
4.600000000000000000e+01 9.500000000000000000e+01
4.700000000000000000e+01 9.500000000000000000e+01
5.800000000000000000e+01 9.500000000000000000e+01
5.900000000000000000e+01 9.500000000000000000e+01
6.000000000000000000e+01 9.500000000000000000e+01
6.500000000000000000e+01 9.500000000000000000e+01
6.600000000000000000e+01 9.500000000000000000e+01
6.700000000000000000e+01 9.500000000000000000e+01
1.600000000000000000e+02 9.500000000000000000e+01
1.610000000000000000e+02 9.500000000000000000e+01
1.620000000000000000e+02 9.500000000000000000e+01
1.650000000000000000e+02 9.500000000000000000e+01
1.660000000000000000e+02 9.500000000000000000e+01
1.670000000000000000e+02 9.500000000000000000e+01
2.870000000000000000e+02 9.500000000000000000e+01
2.880000000000000000e+02 9.500000000000000000e+01
2.890000000000000000e+02 9.500000000000000000e+01
2.920000000000000000e+02 9.500000000000000000e+01
2.930000000000000000e+02 9.500000000000000000e+01
2.940000000000000000e+02 9.500000000000000000e+01
4.150000000000000000e+02 9.500000000000000000e+01
4.160000000000000000e+02 9.500000000000000000e+01
4.170000000000000000e+02 9.500000000000000000e+01
4.180000000000000000e+02 9.500000000000000000e+01
4.190000000000000000e+02 9.500000000000000000e+01
4.200000000000000000e+02 9.500000000000000000e+01
4.210000000000000000e+02 9.500000000000000000e+01
5.420000000000000000e+02 9.500000000000000000e+01
5.430000000000000000e+02 9.500000000000000000e+01
5.440000000000000000e+02 9.500000000000000000e+01
5.460000000000000000e+02 9.500000000000000000e+01
5.470000000000000000e+02 9.500000000000000000e+01
5.480000000000000000e+02 9.500000000000000000e+01
6.690000000000000000e+02 9.500000000000000000e+01
6.700000000000000000e+02 9.500000000000000000e+01
6.710000000000000000e+02 9.500000000000000000e+01
6.740000000000000000e+02 9.500000000000000000e+01
6.750000000000000000e+02 9.500000000000000000e+01
6.760000000000000000e+02 9.500000000000000000e+01
7.960000000000000000e+02 9.500000000000000000e+01
7.970000000000000000e+02 9.500000000000000000e+01
7.980000000000000000e+02 9.500000000000000000e+01
7.990000000000000000e+02 9.500000000000000000e+01
8.010000000000000000e+02 9.500000000000000000e+01
8.020000000000000000e+02 9.500000000000000000e+01
8.030000000000000000e+02 9.500000000000000000e+01
9.240000000000000000e+02 9.500000000000000000e+01
9.250000000000000000e+02 9.500000000000000000e+01
9.260000000000000000e+02 9.500000000000000000e+01
9.280000000000000000e+02 9.500000000000000000e+01
9.290000000000000000e+02 9.500000000000000000e+01
9.300000000000000000e+02 9.500000000000000000e+01
9.310000000000000000e+02 9.500000000000000000e+01
3.300000000000000000e+01 9.600000000000000000e+01
3.400000000000000000e+01 9.600000000000000000e+01
3.500000000000000000e+01 9.600000000000000000e+01
3.700000000000000000e+01 9.600000000000000000e+01
3.800000000000000000e+01 9.600000000000000000e+01
3.900000000000000000e+01 9.600000000000000000e+01
4.000000000000000000e+01 9.600000000000000000e+01
4.500000000000000000e+01 9.600000000000000000e+01
4.600000000000000000e+01 9.600000000000000000e+01
4.700000000000000000e+01 9.600000000000000000e+01
5.800000000000000000e+01 9.600000000000000000e+01
5.900000000000000000e+01 9.600000000000000000e+01
6.500000000000000000e+01 9.600000000000000000e+01
6.600000000000000000e+01 9.600000000000000000e+01
6.700000000000000000e+01 9.600000000000000000e+01
1.600000000000000000e+02 9.600000000000000000e+01
1.610000000000000000e+02 9.600000000000000000e+01
1.620000000000000000e+02 9.600000000000000000e+01
1.650000000000000000e+02 9.600000000000000000e+01
1.660000000000000000e+02 9.600000000000000000e+01
1.670000000000000000e+02 9.600000000000000000e+01
2.870000000000000000e+02 9.600000000000000000e+01
2.880000000000000000e+02 9.600000000000000000e+01
2.890000000000000000e+02 9.600000000000000000e+01
2.920000000000000000e+02 9.600000000000000000e+01
2.930000000000000000e+02 9.600000000000000000e+01
2.940000000000000000e+02 9.600000000000000000e+01
4.140000000000000000e+02 9.600000000000000000e+01
4.150000000000000000e+02 9.600000000000000000e+01
4.160000000000000000e+02 9.600000000000000000e+01
4.170000000000000000e+02 9.600000000000000000e+01
4.180000000000000000e+02 9.600000000000000000e+01
4.190000000000000000e+02 9.600000000000000000e+01
4.200000000000000000e+02 9.600000000000000000e+01
4.210000000000000000e+02 9.600000000000000000e+01
5.410000000000000000e+02 9.600000000000000000e+01
5.420000000000000000e+02 9.600000000000000000e+01
5.430000000000000000e+02 9.600000000000000000e+01
5.440000000000000000e+02 9.600000000000000000e+01
5.460000000000000000e+02 9.600000000000000000e+01
5.470000000000000000e+02 9.600000000000000000e+01
5.480000000000000000e+02 9.600000000000000000e+01
6.690000000000000000e+02 9.600000000000000000e+01
6.700000000000000000e+02 9.600000000000000000e+01
6.710000000000000000e+02 9.600000000000000000e+01
6.740000000000000000e+02 9.600000000000000000e+01
6.750000000000000000e+02 9.600000000000000000e+01
6.760000000000000000e+02 9.600000000000000000e+01
7.960000000000000000e+02 9.600000000000000000e+01
7.970000000000000000e+02 9.600000000000000000e+01
7.980000000000000000e+02 9.600000000000000000e+01
7.990000000000000000e+02 9.600000000000000000e+01
8.010000000000000000e+02 9.600000000000000000e+01
8.020000000000000000e+02 9.600000000000000000e+01
8.030000000000000000e+02 9.600000000000000000e+01
9.240000000000000000e+02 9.600000000000000000e+01
9.250000000000000000e+02 9.600000000000000000e+01
9.260000000000000000e+02 9.600000000000000000e+01
9.280000000000000000e+02 9.600000000000000000e+01
9.290000000000000000e+02 9.600000000000000000e+01
9.300000000000000000e+02 9.600000000000000000e+01
9.310000000000000000e+02 9.600000000000000000e+01
3.300000000000000000e+01 9.700000000000000000e+01
3.400000000000000000e+01 9.700000000000000000e+01
3.500000000000000000e+01 9.700000000000000000e+01
3.800000000000000000e+01 9.700000000000000000e+01
3.900000000000000000e+01 9.700000000000000000e+01
4.000000000000000000e+01 9.700000000000000000e+01
4.600000000000000000e+01 9.700000000000000000e+01
4.700000000000000000e+01 9.700000000000000000e+01
5.800000000000000000e+01 9.700000000000000000e+01
6.500000000000000000e+01 9.700000000000000000e+01
6.600000000000000000e+01 9.700000000000000000e+01
6.700000000000000000e+01 9.700000000000000000e+01
1.600000000000000000e+02 9.700000000000000000e+01
1.610000000000000000e+02 9.700000000000000000e+01
1.620000000000000000e+02 9.700000000000000000e+01
1.650000000000000000e+02 9.700000000000000000e+01
1.660000000000000000e+02 9.700000000000000000e+01
1.670000000000000000e+02 9.700000000000000000e+01
2.870000000000000000e+02 9.700000000000000000e+01
2.880000000000000000e+02 9.700000000000000000e+01
2.890000000000000000e+02 9.700000000000000000e+01
2.920000000000000000e+02 9.700000000000000000e+01
2.930000000000000000e+02 9.700000000000000000e+01
2.940000000000000000e+02 9.700000000000000000e+01
4.140000000000000000e+02 9.700000000000000000e+01
4.150000000000000000e+02 9.700000000000000000e+01
4.160000000000000000e+02 9.700000000000000000e+01
4.170000000000000000e+02 9.700000000000000000e+01
4.180000000000000000e+02 9.700000000000000000e+01
4.190000000000000000e+02 9.700000000000000000e+01
4.200000000000000000e+02 9.700000000000000000e+01
4.210000000000000000e+02 9.700000000000000000e+01
5.410000000000000000e+02 9.700000000000000000e+01
5.420000000000000000e+02 9.700000000000000000e+01
5.430000000000000000e+02 9.700000000000000000e+01
5.440000000000000000e+02 9.700000000000000000e+01
5.460000000000000000e+02 9.700000000000000000e+01
5.470000000000000000e+02 9.700000000000000000e+01
5.480000000000000000e+02 9.700000000000000000e+01
6.690000000000000000e+02 9.700000000000000000e+01
6.700000000000000000e+02 9.700000000000000000e+01
6.710000000000000000e+02 9.700000000000000000e+01
6.740000000000000000e+02 9.700000000000000000e+01
6.750000000000000000e+02 9.700000000000000000e+01
6.760000000000000000e+02 9.700000000000000000e+01
7.960000000000000000e+02 9.700000000000000000e+01
7.970000000000000000e+02 9.700000000000000000e+01
7.980000000000000000e+02 9.700000000000000000e+01
8.010000000000000000e+02 9.700000000000000000e+01
8.020000000000000000e+02 9.700000000000000000e+01
8.030000000000000000e+02 9.700000000000000000e+01
9.240000000000000000e+02 9.700000000000000000e+01
9.250000000000000000e+02 9.700000000000000000e+01
9.260000000000000000e+02 9.700000000000000000e+01
9.290000000000000000e+02 9.700000000000000000e+01
9.300000000000000000e+02 9.700000000000000000e+01
9.310000000000000000e+02 9.700000000000000000e+01
3.300000000000000000e+01 9.800000000000000000e+01
3.400000000000000000e+01 9.800000000000000000e+01
3.500000000000000000e+01 9.800000000000000000e+01
3.800000000000000000e+01 9.800000000000000000e+01
3.900000000000000000e+01 9.800000000000000000e+01
4.000000000000000000e+01 9.800000000000000000e+01
4.600000000000000000e+01 9.800000000000000000e+01
4.700000000000000000e+01 9.800000000000000000e+01
4.800000000000000000e+01 9.800000000000000000e+01
5.800000000000000000e+01 9.800000000000000000e+01
6.500000000000000000e+01 9.800000000000000000e+01
6.600000000000000000e+01 9.800000000000000000e+01
6.700000000000000000e+01 9.800000000000000000e+01
1.600000000000000000e+02 9.800000000000000000e+01
1.610000000000000000e+02 9.800000000000000000e+01
1.620000000000000000e+02 9.800000000000000000e+01
1.650000000000000000e+02 9.800000000000000000e+01
1.660000000000000000e+02 9.800000000000000000e+01
1.670000000000000000e+02 9.800000000000000000e+01
2.870000000000000000e+02 9.800000000000000000e+01
2.880000000000000000e+02 9.800000000000000000e+01
2.890000000000000000e+02 9.800000000000000000e+01
2.920000000000000000e+02 9.800000000000000000e+01
2.930000000000000000e+02 9.800000000000000000e+01
2.940000000000000000e+02 9.800000000000000000e+01
4.140000000000000000e+02 9.800000000000000000e+01
4.150000000000000000e+02 9.800000000000000000e+01
4.160000000000000000e+02 9.800000000000000000e+01
4.170000000000000000e+02 9.800000000000000000e+01
4.180000000000000000e+02 9.800000000000000000e+01
4.190000000000000000e+02 9.800000000000000000e+01
4.200000000000000000e+02 9.800000000000000000e+01
4.210000000000000000e+02 9.800000000000000000e+01
5.410000000000000000e+02 9.800000000000000000e+01
5.420000000000000000e+02 9.800000000000000000e+01
5.430000000000000000e+02 9.800000000000000000e+01
5.440000000000000000e+02 9.800000000000000000e+01
5.460000000000000000e+02 9.800000000000000000e+01
5.470000000000000000e+02 9.800000000000000000e+01
5.480000000000000000e+02 9.800000000000000000e+01
6.690000000000000000e+02 9.800000000000000000e+01
6.700000000000000000e+02 9.800000000000000000e+01
6.710000000000000000e+02 9.800000000000000000e+01
6.740000000000000000e+02 9.800000000000000000e+01
6.750000000000000000e+02 9.800000000000000000e+01
6.760000000000000000e+02 9.800000000000000000e+01
7.960000000000000000e+02 9.800000000000000000e+01
7.970000000000000000e+02 9.800000000000000000e+01
7.980000000000000000e+02 9.800000000000000000e+01
8.010000000000000000e+02 9.800000000000000000e+01
8.020000000000000000e+02 9.800000000000000000e+01
8.030000000000000000e+02 9.800000000000000000e+01
9.230000000000000000e+02 9.800000000000000000e+01
9.240000000000000000e+02 9.800000000000000000e+01
9.250000000000000000e+02 9.800000000000000000e+01
9.260000000000000000e+02 9.800000000000000000e+01
9.290000000000000000e+02 9.800000000000000000e+01
9.300000000000000000e+02 9.800000000000000000e+01
9.310000000000000000e+02 9.800000000000000000e+01
3.300000000000000000e+01 9.900000000000000000e+01
3.400000000000000000e+01 9.900000000000000000e+01
3.500000000000000000e+01 9.900000000000000000e+01
3.800000000000000000e+01 9.900000000000000000e+01
3.900000000000000000e+01 9.900000000000000000e+01
4.000000000000000000e+01 9.900000000000000000e+01
4.600000000000000000e+01 9.900000000000000000e+01
4.700000000000000000e+01 9.900000000000000000e+01
4.800000000000000000e+01 9.900000000000000000e+01
5.700000000000000000e+01 9.900000000000000000e+01
5.800000000000000000e+01 9.900000000000000000e+01
6.500000000000000000e+01 9.900000000000000000e+01
6.600000000000000000e+01 9.900000000000000000e+01
6.700000000000000000e+01 9.900000000000000000e+01
1.600000000000000000e+02 9.900000000000000000e+01
1.610000000000000000e+02 9.900000000000000000e+01
1.620000000000000000e+02 9.900000000000000000e+01
1.650000000000000000e+02 9.900000000000000000e+01
1.660000000000000000e+02 9.900000000000000000e+01
1.670000000000000000e+02 9.900000000000000000e+01
2.870000000000000000e+02 9.900000000000000000e+01
2.880000000000000000e+02 9.900000000000000000e+01
2.890000000000000000e+02 9.900000000000000000e+01
2.920000000000000000e+02 9.900000000000000000e+01
2.930000000000000000e+02 9.900000000000000000e+01
2.940000000000000000e+02 9.900000000000000000e+01
4.140000000000000000e+02 9.900000000000000000e+01
4.150000000000000000e+02 9.900000000000000000e+01
4.160000000000000000e+02 9.900000000000000000e+01
4.170000000000000000e+02 9.900000000000000000e+01
4.180000000000000000e+02 9.900000000000000000e+01
4.190000000000000000e+02 9.900000000000000000e+01
4.200000000000000000e+02 9.900000000000000000e+01
4.210000000000000000e+02 9.900000000000000000e+01
5.410000000000000000e+02 9.900000000000000000e+01
5.420000000000000000e+02 9.900000000000000000e+01
5.430000000000000000e+02 9.900000000000000000e+01
5.440000000000000000e+02 9.900000000000000000e+01
5.460000000000000000e+02 9.900000000000000000e+01
5.470000000000000000e+02 9.900000000000000000e+01
5.480000000000000000e+02 9.900000000000000000e+01
6.690000000000000000e+02 9.900000000000000000e+01
6.700000000000000000e+02 9.900000000000000000e+01
6.710000000000000000e+02 9.900000000000000000e+01
6.740000000000000000e+02 9.900000000000000000e+01
6.750000000000000000e+02 9.900000000000000000e+01
6.760000000000000000e+02 9.900000000000000000e+01
7.960000000000000000e+02 9.900000000000000000e+01
7.970000000000000000e+02 9.900000000000000000e+01
7.980000000000000000e+02 9.900000000000000000e+01
8.010000000000000000e+02 9.900000000000000000e+01
8.020000000000000000e+02 9.900000000000000000e+01
8.030000000000000000e+02 9.900000000000000000e+01
9.230000000000000000e+02 9.900000000000000000e+01
9.240000000000000000e+02 9.900000000000000000e+01
9.250000000000000000e+02 9.900000000000000000e+01
9.260000000000000000e+02 9.900000000000000000e+01
9.290000000000000000e+02 9.900000000000000000e+01
9.300000000000000000e+02 9.900000000000000000e+01
9.310000000000000000e+02 9.900000000000000000e+01
3.100000000000000000e+01 1.000000000000000000e+02
3.200000000000000000e+01 1.000000000000000000e+02
3.300000000000000000e+01 1.000000000000000000e+02
3.400000000000000000e+01 1.000000000000000000e+02
3.500000000000000000e+01 1.000000000000000000e+02
3.800000000000000000e+01 1.000000000000000000e+02
3.900000000000000000e+01 1.000000000000000000e+02
4.000000000000000000e+01 1.000000000000000000e+02
4.700000000000000000e+01 1.000000000000000000e+02
4.800000000000000000e+01 1.000000000000000000e+02
4.900000000000000000e+01 1.000000000000000000e+02
5.700000000000000000e+01 1.000000000000000000e+02
6.500000000000000000e+01 1.000000000000000000e+02
6.600000000000000000e+01 1.000000000000000000e+02
6.700000000000000000e+01 1.000000000000000000e+02
1.600000000000000000e+02 1.000000000000000000e+02
1.610000000000000000e+02 1.000000000000000000e+02
1.620000000000000000e+02 1.000000000000000000e+02
1.650000000000000000e+02 1.000000000000000000e+02
1.660000000000000000e+02 1.000000000000000000e+02
1.670000000000000000e+02 1.000000000000000000e+02
2.870000000000000000e+02 1.000000000000000000e+02
2.880000000000000000e+02 1.000000000000000000e+02
2.890000000000000000e+02 1.000000000000000000e+02
2.920000000000000000e+02 1.000000000000000000e+02
2.930000000000000000e+02 1.000000000000000000e+02
2.940000000000000000e+02 1.000000000000000000e+02
4.140000000000000000e+02 1.000000000000000000e+02
4.150000000000000000e+02 1.000000000000000000e+02
4.160000000000000000e+02 1.000000000000000000e+02
4.170000000000000000e+02 1.000000000000000000e+02
4.190000000000000000e+02 1.000000000000000000e+02
4.200000000000000000e+02 1.000000000000000000e+02
4.210000000000000000e+02 1.000000000000000000e+02
5.410000000000000000e+02 1.000000000000000000e+02
5.420000000000000000e+02 1.000000000000000000e+02
5.430000000000000000e+02 1.000000000000000000e+02
5.440000000000000000e+02 1.000000000000000000e+02
5.460000000000000000e+02 1.000000000000000000e+02
5.470000000000000000e+02 1.000000000000000000e+02
5.480000000000000000e+02 1.000000000000000000e+02
5.490000000000000000e+02 1.000000000000000000e+02
6.690000000000000000e+02 1.000000000000000000e+02
6.700000000000000000e+02 1.000000000000000000e+02
6.710000000000000000e+02 1.000000000000000000e+02
6.740000000000000000e+02 1.000000000000000000e+02
6.750000000000000000e+02 1.000000000000000000e+02
6.760000000000000000e+02 1.000000000000000000e+02
7.960000000000000000e+02 1.000000000000000000e+02
7.970000000000000000e+02 1.000000000000000000e+02
7.980000000000000000e+02 1.000000000000000000e+02
8.010000000000000000e+02 1.000000000000000000e+02
8.020000000000000000e+02 1.000000000000000000e+02
8.030000000000000000e+02 1.000000000000000000e+02
8.040000000000000000e+02 1.000000000000000000e+02
9.230000000000000000e+02 1.000000000000000000e+02
9.240000000000000000e+02 1.000000000000000000e+02
9.250000000000000000e+02 1.000000000000000000e+02
9.260000000000000000e+02 1.000000000000000000e+02
9.290000000000000000e+02 1.000000000000000000e+02
9.300000000000000000e+02 1.000000000000000000e+02
9.310000000000000000e+02 1.000000000000000000e+02
3.000000000000000000e+01 1.010000000000000000e+02
3.100000000000000000e+01 1.010000000000000000e+02
3.200000000000000000e+01 1.010000000000000000e+02
3.300000000000000000e+01 1.010000000000000000e+02
3.400000000000000000e+01 1.010000000000000000e+02
3.500000000000000000e+01 1.010000000000000000e+02
3.600000000000000000e+01 1.010000000000000000e+02
3.800000000000000000e+01 1.010000000000000000e+02
3.900000000000000000e+01 1.010000000000000000e+02
4.000000000000000000e+01 1.010000000000000000e+02
4.700000000000000000e+01 1.010000000000000000e+02
4.800000000000000000e+01 1.010000000000000000e+02
4.900000000000000000e+01 1.010000000000000000e+02
5.700000000000000000e+01 1.010000000000000000e+02
6.500000000000000000e+01 1.010000000000000000e+02
6.600000000000000000e+01 1.010000000000000000e+02
6.700000000000000000e+01 1.010000000000000000e+02
1.600000000000000000e+02 1.010000000000000000e+02
1.610000000000000000e+02 1.010000000000000000e+02
1.620000000000000000e+02 1.010000000000000000e+02
1.650000000000000000e+02 1.010000000000000000e+02
1.660000000000000000e+02 1.010000000000000000e+02
1.670000000000000000e+02 1.010000000000000000e+02
2.870000000000000000e+02 1.010000000000000000e+02
2.880000000000000000e+02 1.010000000000000000e+02
2.890000000000000000e+02 1.010000000000000000e+02
2.920000000000000000e+02 1.010000000000000000e+02
2.930000000000000000e+02 1.010000000000000000e+02
2.940000000000000000e+02 1.010000000000000000e+02
4.140000000000000000e+02 1.010000000000000000e+02
4.150000000000000000e+02 1.010000000000000000e+02
4.160000000000000000e+02 1.010000000000000000e+02
4.190000000000000000e+02 1.010000000000000000e+02
4.200000000000000000e+02 1.010000000000000000e+02
4.210000000000000000e+02 1.010000000000000000e+02
5.410000000000000000e+02 1.010000000000000000e+02
5.420000000000000000e+02 1.010000000000000000e+02
5.430000000000000000e+02 1.010000000000000000e+02
5.460000000000000000e+02 1.010000000000000000e+02
5.470000000000000000e+02 1.010000000000000000e+02
5.480000000000000000e+02 1.010000000000000000e+02
5.490000000000000000e+02 1.010000000000000000e+02
6.690000000000000000e+02 1.010000000000000000e+02
6.700000000000000000e+02 1.010000000000000000e+02
6.710000000000000000e+02 1.010000000000000000e+02
6.740000000000000000e+02 1.010000000000000000e+02
6.750000000000000000e+02 1.010000000000000000e+02
6.760000000000000000e+02 1.010000000000000000e+02
7.960000000000000000e+02 1.010000000000000000e+02
7.970000000000000000e+02 1.010000000000000000e+02
7.980000000000000000e+02 1.010000000000000000e+02
8.010000000000000000e+02 1.010000000000000000e+02
8.020000000000000000e+02 1.010000000000000000e+02
8.030000000000000000e+02 1.010000000000000000e+02
8.040000000000000000e+02 1.010000000000000000e+02
9.230000000000000000e+02 1.010000000000000000e+02
9.240000000000000000e+02 1.010000000000000000e+02
9.250000000000000000e+02 1.010000000000000000e+02
9.290000000000000000e+02 1.010000000000000000e+02
9.300000000000000000e+02 1.010000000000000000e+02
9.310000000000000000e+02 1.010000000000000000e+02
2.900000000000000000e+01 1.020000000000000000e+02
3.000000000000000000e+01 1.020000000000000000e+02
3.200000000000000000e+01 1.020000000000000000e+02
3.300000000000000000e+01 1.020000000000000000e+02
3.400000000000000000e+01 1.020000000000000000e+02
3.500000000000000000e+01 1.020000000000000000e+02
3.600000000000000000e+01 1.020000000000000000e+02
3.700000000000000000e+01 1.020000000000000000e+02
3.800000000000000000e+01 1.020000000000000000e+02
3.900000000000000000e+01 1.020000000000000000e+02
4.000000000000000000e+01 1.020000000000000000e+02
4.800000000000000000e+01 1.020000000000000000e+02
4.900000000000000000e+01 1.020000000000000000e+02
5.000000000000000000e+01 1.020000000000000000e+02
5.600000000000000000e+01 1.020000000000000000e+02
6.500000000000000000e+01 1.020000000000000000e+02
6.600000000000000000e+01 1.020000000000000000e+02
6.700000000000000000e+01 1.020000000000000000e+02
1.600000000000000000e+02 1.020000000000000000e+02
1.610000000000000000e+02 1.020000000000000000e+02
1.620000000000000000e+02 1.020000000000000000e+02
1.650000000000000000e+02 1.020000000000000000e+02
1.660000000000000000e+02 1.020000000000000000e+02
1.670000000000000000e+02 1.020000000000000000e+02
2.860000000000000000e+02 1.020000000000000000e+02
2.870000000000000000e+02 1.020000000000000000e+02
2.880000000000000000e+02 1.020000000000000000e+02
2.890000000000000000e+02 1.020000000000000000e+02
2.920000000000000000e+02 1.020000000000000000e+02
2.930000000000000000e+02 1.020000000000000000e+02
2.940000000000000000e+02 1.020000000000000000e+02
4.140000000000000000e+02 1.020000000000000000e+02
4.150000000000000000e+02 1.020000000000000000e+02
4.160000000000000000e+02 1.020000000000000000e+02
4.190000000000000000e+02 1.020000000000000000e+02
4.200000000000000000e+02 1.020000000000000000e+02
4.210000000000000000e+02 1.020000000000000000e+02
5.410000000000000000e+02 1.020000000000000000e+02
5.420000000000000000e+02 1.020000000000000000e+02
5.430000000000000000e+02 1.020000000000000000e+02
5.460000000000000000e+02 1.020000000000000000e+02
5.470000000000000000e+02 1.020000000000000000e+02
5.480000000000000000e+02 1.020000000000000000e+02
5.490000000000000000e+02 1.020000000000000000e+02
6.690000000000000000e+02 1.020000000000000000e+02
6.700000000000000000e+02 1.020000000000000000e+02
6.710000000000000000e+02 1.020000000000000000e+02
6.740000000000000000e+02 1.020000000000000000e+02
6.750000000000000000e+02 1.020000000000000000e+02
6.760000000000000000e+02 1.020000000000000000e+02
7.960000000000000000e+02 1.020000000000000000e+02
7.970000000000000000e+02 1.020000000000000000e+02
7.980000000000000000e+02 1.020000000000000000e+02
8.010000000000000000e+02 1.020000000000000000e+02
8.020000000000000000e+02 1.020000000000000000e+02
8.030000000000000000e+02 1.020000000000000000e+02
8.040000000000000000e+02 1.020000000000000000e+02
9.230000000000000000e+02 1.020000000000000000e+02
9.240000000000000000e+02 1.020000000000000000e+02
9.250000000000000000e+02 1.020000000000000000e+02
9.290000000000000000e+02 1.020000000000000000e+02
9.300000000000000000e+02 1.020000000000000000e+02
9.310000000000000000e+02 1.020000000000000000e+02
2.900000000000000000e+01 1.030000000000000000e+02
3.000000000000000000e+01 1.030000000000000000e+02
3.200000000000000000e+01 1.030000000000000000e+02
3.300000000000000000e+01 1.030000000000000000e+02
3.400000000000000000e+01 1.030000000000000000e+02
3.500000000000000000e+01 1.030000000000000000e+02
3.600000000000000000e+01 1.030000000000000000e+02
3.700000000000000000e+01 1.030000000000000000e+02
3.800000000000000000e+01 1.030000000000000000e+02
3.900000000000000000e+01 1.030000000000000000e+02
4.000000000000000000e+01 1.030000000000000000e+02
4.800000000000000000e+01 1.030000000000000000e+02
4.900000000000000000e+01 1.030000000000000000e+02
5.000000000000000000e+01 1.030000000000000000e+02
5.600000000000000000e+01 1.030000000000000000e+02
6.500000000000000000e+01 1.030000000000000000e+02
6.600000000000000000e+01 1.030000000000000000e+02
6.700000000000000000e+01 1.030000000000000000e+02
1.590000000000000000e+02 1.030000000000000000e+02
1.610000000000000000e+02 1.030000000000000000e+02
1.620000000000000000e+02 1.030000000000000000e+02
1.650000000000000000e+02 1.030000000000000000e+02
1.660000000000000000e+02 1.030000000000000000e+02
1.670000000000000000e+02 1.030000000000000000e+02
2.860000000000000000e+02 1.030000000000000000e+02
2.870000000000000000e+02 1.030000000000000000e+02
2.880000000000000000e+02 1.030000000000000000e+02
2.890000000000000000e+02 1.030000000000000000e+02
2.920000000000000000e+02 1.030000000000000000e+02
2.930000000000000000e+02 1.030000000000000000e+02
2.940000000000000000e+02 1.030000000000000000e+02
4.140000000000000000e+02 1.030000000000000000e+02
4.150000000000000000e+02 1.030000000000000000e+02
4.160000000000000000e+02 1.030000000000000000e+02
4.190000000000000000e+02 1.030000000000000000e+02
4.200000000000000000e+02 1.030000000000000000e+02
4.210000000000000000e+02 1.030000000000000000e+02
5.410000000000000000e+02 1.030000000000000000e+02
5.420000000000000000e+02 1.030000000000000000e+02
5.430000000000000000e+02 1.030000000000000000e+02
5.460000000000000000e+02 1.030000000000000000e+02
5.470000000000000000e+02 1.030000000000000000e+02
5.480000000000000000e+02 1.030000000000000000e+02
5.490000000000000000e+02 1.030000000000000000e+02
6.690000000000000000e+02 1.030000000000000000e+02
6.700000000000000000e+02 1.030000000000000000e+02
6.710000000000000000e+02 1.030000000000000000e+02
6.740000000000000000e+02 1.030000000000000000e+02
6.750000000000000000e+02 1.030000000000000000e+02
6.760000000000000000e+02 1.030000000000000000e+02
7.960000000000000000e+02 1.030000000000000000e+02
7.970000000000000000e+02 1.030000000000000000e+02
7.980000000000000000e+02 1.030000000000000000e+02
8.010000000000000000e+02 1.030000000000000000e+02
8.020000000000000000e+02 1.030000000000000000e+02
8.030000000000000000e+02 1.030000000000000000e+02
8.040000000000000000e+02 1.030000000000000000e+02
9.230000000000000000e+02 1.030000000000000000e+02
9.240000000000000000e+02 1.030000000000000000e+02
9.250000000000000000e+02 1.030000000000000000e+02
9.290000000000000000e+02 1.030000000000000000e+02
9.300000000000000000e+02 1.030000000000000000e+02
9.310000000000000000e+02 1.030000000000000000e+02
3.000000000000000000e+01 1.040000000000000000e+02
3.200000000000000000e+01 1.040000000000000000e+02
3.300000000000000000e+01 1.040000000000000000e+02
3.400000000000000000e+01 1.040000000000000000e+02
3.600000000000000000e+01 1.040000000000000000e+02
3.700000000000000000e+01 1.040000000000000000e+02
3.800000000000000000e+01 1.040000000000000000e+02
3.900000000000000000e+01 1.040000000000000000e+02
4.000000000000000000e+01 1.040000000000000000e+02
4.900000000000000000e+01 1.040000000000000000e+02
5.000000000000000000e+01 1.040000000000000000e+02
5.500000000000000000e+01 1.040000000000000000e+02
5.600000000000000000e+01 1.040000000000000000e+02
6.500000000000000000e+01 1.040000000000000000e+02
6.600000000000000000e+01 1.040000000000000000e+02
6.700000000000000000e+01 1.040000000000000000e+02
1.590000000000000000e+02 1.040000000000000000e+02
1.600000000000000000e+02 1.040000000000000000e+02
1.610000000000000000e+02 1.040000000000000000e+02
1.620000000000000000e+02 1.040000000000000000e+02
1.650000000000000000e+02 1.040000000000000000e+02
1.660000000000000000e+02 1.040000000000000000e+02
1.670000000000000000e+02 1.040000000000000000e+02
2.130000000000000000e+02 1.040000000000000000e+02
2.140000000000000000e+02 1.040000000000000000e+02
2.150000000000000000e+02 1.040000000000000000e+02
2.860000000000000000e+02 1.040000000000000000e+02
2.870000000000000000e+02 1.040000000000000000e+02
2.880000000000000000e+02 1.040000000000000000e+02
2.890000000000000000e+02 1.040000000000000000e+02
2.920000000000000000e+02 1.040000000000000000e+02
2.930000000000000000e+02 1.040000000000000000e+02
2.940000000000000000e+02 1.040000000000000000e+02
4.140000000000000000e+02 1.040000000000000000e+02
4.150000000000000000e+02 1.040000000000000000e+02
4.160000000000000000e+02 1.040000000000000000e+02
4.190000000000000000e+02 1.040000000000000000e+02
4.200000000000000000e+02 1.040000000000000000e+02
4.210000000000000000e+02 1.040000000000000000e+02
5.410000000000000000e+02 1.040000000000000000e+02
5.420000000000000000e+02 1.040000000000000000e+02
5.430000000000000000e+02 1.040000000000000000e+02
5.470000000000000000e+02 1.040000000000000000e+02
5.480000000000000000e+02 1.040000000000000000e+02
5.490000000000000000e+02 1.040000000000000000e+02
6.680000000000000000e+02 1.040000000000000000e+02
6.690000000000000000e+02 1.040000000000000000e+02
6.700000000000000000e+02 1.040000000000000000e+02
6.710000000000000000e+02 1.040000000000000000e+02
6.740000000000000000e+02 1.040000000000000000e+02
6.750000000000000000e+02 1.040000000000000000e+02
6.760000000000000000e+02 1.040000000000000000e+02
7.960000000000000000e+02 1.040000000000000000e+02
7.970000000000000000e+02 1.040000000000000000e+02
7.980000000000000000e+02 1.040000000000000000e+02
8.020000000000000000e+02 1.040000000000000000e+02
8.030000000000000000e+02 1.040000000000000000e+02
8.040000000000000000e+02 1.040000000000000000e+02
8.500000000000000000e+02 1.040000000000000000e+02
8.510000000000000000e+02 1.040000000000000000e+02
9.230000000000000000e+02 1.040000000000000000e+02
9.240000000000000000e+02 1.040000000000000000e+02
9.250000000000000000e+02 1.040000000000000000e+02
9.290000000000000000e+02 1.040000000000000000e+02
9.300000000000000000e+02 1.040000000000000000e+02
9.310000000000000000e+02 1.040000000000000000e+02
3.200000000000000000e+01 1.050000000000000000e+02
3.300000000000000000e+01 1.050000000000000000e+02
3.400000000000000000e+01 1.050000000000000000e+02
3.500000000000000000e+01 1.050000000000000000e+02
3.600000000000000000e+01 1.050000000000000000e+02
3.700000000000000000e+01 1.050000000000000000e+02
3.800000000000000000e+01 1.050000000000000000e+02
3.900000000000000000e+01 1.050000000000000000e+02
4.000000000000000000e+01 1.050000000000000000e+02
4.900000000000000000e+01 1.050000000000000000e+02
5.000000000000000000e+01 1.050000000000000000e+02
5.100000000000000000e+01 1.050000000000000000e+02
5.500000000000000000e+01 1.050000000000000000e+02
6.500000000000000000e+01 1.050000000000000000e+02
6.600000000000000000e+01 1.050000000000000000e+02
6.700000000000000000e+01 1.050000000000000000e+02
1.590000000000000000e+02 1.050000000000000000e+02
1.600000000000000000e+02 1.050000000000000000e+02
1.610000000000000000e+02 1.050000000000000000e+02
1.620000000000000000e+02 1.050000000000000000e+02
1.650000000000000000e+02 1.050000000000000000e+02
1.660000000000000000e+02 1.050000000000000000e+02
1.670000000000000000e+02 1.050000000000000000e+02
2.120000000000000000e+02 1.050000000000000000e+02
2.130000000000000000e+02 1.050000000000000000e+02
2.140000000000000000e+02 1.050000000000000000e+02
2.150000000000000000e+02 1.050000000000000000e+02
2.160000000000000000e+02 1.050000000000000000e+02
2.860000000000000000e+02 1.050000000000000000e+02
2.870000000000000000e+02 1.050000000000000000e+02
2.880000000000000000e+02 1.050000000000000000e+02
2.920000000000000000e+02 1.050000000000000000e+02
2.930000000000000000e+02 1.050000000000000000e+02
2.940000000000000000e+02 1.050000000000000000e+02
4.140000000000000000e+02 1.050000000000000000e+02
4.150000000000000000e+02 1.050000000000000000e+02
4.160000000000000000e+02 1.050000000000000000e+02
4.190000000000000000e+02 1.050000000000000000e+02
4.200000000000000000e+02 1.050000000000000000e+02
4.210000000000000000e+02 1.050000000000000000e+02
5.410000000000000000e+02 1.050000000000000000e+02
5.420000000000000000e+02 1.050000000000000000e+02
5.430000000000000000e+02 1.050000000000000000e+02
5.470000000000000000e+02 1.050000000000000000e+02
5.480000000000000000e+02 1.050000000000000000e+02
5.490000000000000000e+02 1.050000000000000000e+02
5.940000000000000000e+02 1.050000000000000000e+02
5.950000000000000000e+02 1.050000000000000000e+02
5.960000000000000000e+02 1.050000000000000000e+02
6.680000000000000000e+02 1.050000000000000000e+02
6.690000000000000000e+02 1.050000000000000000e+02
