1.000000000000000000e+01 0.000000000000000000e+00
1.100000000000000000e+01 0.000000000000000000e+00
1.200000000000000000e+01 0.000000000000000000e+00
1.250000000000000000e+02 0.000000000000000000e+00
1.260000000000000000e+02 0.000000000000000000e+00
1.270000000000000000e+02 0.000000000000000000e+00
1.300000000000000000e+02 0.000000000000000000e+00
1.310000000000000000e+02 0.000000000000000000e+00
1.320000000000000000e+02 0.000000000000000000e+00
2.980000000000000000e+02 0.000000000000000000e+00
2.990000000000000000e+02 0.000000000000000000e+00
3.000000000000000000e+02 0.000000000000000000e+00
3.030000000000000000e+02 0.000000000000000000e+00
3.040000000000000000e+02 0.000000000000000000e+00
3.050000000000000000e+02 0.000000000000000000e+00
4.720000000000000000e+02 0.000000000000000000e+00
4.730000000000000000e+02 0.000000000000000000e+00
4.740000000000000000e+02 0.000000000000000000e+00
4.750000000000000000e+02 0.000000000000000000e+00
4.770000000000000000e+02 0.000000000000000000e+00
4.780000000000000000e+02 0.000000000000000000e+00
4.790000000000000000e+02 0.000000000000000000e+00
6.560000000000000000e+02 0.000000000000000000e+00
6.570000000000000000e+02 0.000000000000000000e+00
6.580000000000000000e+02 0.000000000000000000e+00
6.600000000000000000e+02 0.000000000000000000e+00
6.610000000000000000e+02 0.000000000000000000e+00
6.620000000000000000e+02 0.000000000000000000e+00
6.630000000000000000e+02 0.000000000000000000e+00
8.390000000000000000e+02 0.000000000000000000e+00
8.400000000000000000e+02 0.000000000000000000e+00
8.410000000000000000e+02 0.000000000000000000e+00
8.440000000000000000e+02 0.000000000000000000e+00
8.450000000000000000e+02 0.000000000000000000e+00
8.460000000000000000e+02 0.000000000000000000e+00
1.000000000000000000e+01 1.000000000000000000e+00
1.100000000000000000e+01 1.000000000000000000e+00
1.200000000000000000e+01 1.000000000000000000e+00
1.250000000000000000e+02 1.000000000000000000e+00
1.260000000000000000e+02 1.000000000000000000e+00
1.270000000000000000e+02 1.000000000000000000e+00
1.300000000000000000e+02 1.000000000000000000e+00
1.310000000000000000e+02 1.000000000000000000e+00
1.320000000000000000e+02 1.000000000000000000e+00
2.980000000000000000e+02 1.000000000000000000e+00
2.990000000000000000e+02 1.000000000000000000e+00
3.000000000000000000e+02 1.000000000000000000e+00
3.030000000000000000e+02 1.000000000000000000e+00
3.040000000000000000e+02 1.000000000000000000e+00
3.050000000000000000e+02 1.000000000000000000e+00
4.720000000000000000e+02 1.000000000000000000e+00
4.730000000000000000e+02 1.000000000000000000e+00
4.740000000000000000e+02 1.000000000000000000e+00
4.750000000000000000e+02 1.000000000000000000e+00
4.770000000000000000e+02 1.000000000000000000e+00
4.780000000000000000e+02 1.000000000000000000e+00
4.790000000000000000e+02 1.000000000000000000e+00
6.560000000000000000e+02 1.000000000000000000e+00
6.570000000000000000e+02 1.000000000000000000e+00
6.580000000000000000e+02 1.000000000000000000e+00
6.600000000000000000e+02 1.000000000000000000e+00
6.610000000000000000e+02 1.000000000000000000e+00
6.620000000000000000e+02 1.000000000000000000e+00
6.630000000000000000e+02 1.000000000000000000e+00
8.390000000000000000e+02 1.000000000000000000e+00
8.400000000000000000e+02 1.000000000000000000e+00
8.410000000000000000e+02 1.000000000000000000e+00
8.440000000000000000e+02 1.000000000000000000e+00
8.450000000000000000e+02 1.000000000000000000e+00
8.460000000000000000e+02 1.000000000000000000e+00
1.000000000000000000e+01 2.000000000000000000e+00
1.100000000000000000e+01 2.000000000000000000e+00
1.200000000000000000e+01 2.000000000000000000e+00
1.250000000000000000e+02 2.000000000000000000e+00
1.260000000000000000e+02 2.000000000000000000e+00
1.270000000000000000e+02 2.000000000000000000e+00
1.280000000000000000e+02 2.000000000000000000e+00
1.290000000000000000e+02 2.000000000000000000e+00
1.300000000000000000e+02 2.000000000000000000e+00
1.310000000000000000e+02 2.000000000000000000e+00
1.320000000000000000e+02 2.000000000000000000e+00
2.980000000000000000e+02 2.000000000000000000e+00
2.990000000000000000e+02 2.000000000000000000e+00
3.000000000000000000e+02 2.000000000000000000e+00
3.030000000000000000e+02 2.000000000000000000e+00
3.040000000000000000e+02 2.000000000000000000e+00
3.050000000000000000e+02 2.000000000000000000e+00
4.720000000000000000e+02 2.000000000000000000e+00
4.730000000000000000e+02 2.000000000000000000e+00
4.740000000000000000e+02 2.000000000000000000e+00
4.750000000000000000e+02 2.000000000000000000e+00
4.770000000000000000e+02 2.000000000000000000e+00
4.780000000000000000e+02 2.000000000000000000e+00
4.790000000000000000e+02 2.000000000000000000e+00
6.560000000000000000e+02 2.000000000000000000e+00
6.570000000000000000e+02 2.000000000000000000e+00
6.580000000000000000e+02 2.000000000000000000e+00
6.600000000000000000e+02 2.000000000000000000e+00
6.610000000000000000e+02 2.000000000000000000e+00
6.620000000000000000e+02 2.000000000000000000e+00
6.630000000000000000e+02 2.000000000000000000e+00
8.390000000000000000e+02 2.000000000000000000e+00
8.400000000000000000e+02 2.000000000000000000e+00
8.410000000000000000e+02 2.000000000000000000e+00
8.440000000000000000e+02 2.000000000000000000e+00
8.450000000000000000e+02 2.000000000000000000e+00
8.460000000000000000e+02 2.000000000000000000e+00
1.000000000000000000e+01 3.000000000000000000e+00
1.100000000000000000e+01 3.000000000000000000e+00
1.200000000000000000e+01 3.000000000000000000e+00
1.250000000000000000e+02 3.000000000000000000e+00
1.260000000000000000e+02 3.000000000000000000e+00
1.270000000000000000e+02 3.000000000000000000e+00
1.290000000000000000e+02 3.000000000000000000e+00
1.300000000000000000e+02 3.000000000000000000e+00
1.310000000000000000e+02 3.000000000000000000e+00
1.320000000000000000e+02 3.000000000000000000e+00
2.980000000000000000e+02 3.000000000000000000e+00
2.990000000000000000e+02 3.000000000000000000e+00
3.000000000000000000e+02 3.000000000000000000e+00
3.030000000000000000e+02 3.000000000000000000e+00
3.040000000000000000e+02 3.000000000000000000e+00
3.050000000000000000e+02 3.000000000000000000e+00
4.720000000000000000e+02 3.000000000000000000e+00
4.730000000000000000e+02 3.000000000000000000e+00
4.740000000000000000e+02 3.000000000000000000e+00
4.750000000000000000e+02 3.000000000000000000e+00
4.770000000000000000e+02 3.000000000000000000e+00
4.780000000000000000e+02 3.000000000000000000e+00
4.790000000000000000e+02 3.000000000000000000e+00
6.560000000000000000e+02 3.000000000000000000e+00
6.570000000000000000e+02 3.000000000000000000e+00
6.580000000000000000e+02 3.000000000000000000e+00
6.600000000000000000e+02 3.000000000000000000e+00
6.610000000000000000e+02 3.000000000000000000e+00
6.620000000000000000e+02 3.000000000000000000e+00
6.630000000000000000e+02 3.000000000000000000e+00
8.390000000000000000e+02 3.000000000000000000e+00
8.400000000000000000e+02 3.000000000000000000e+00
8.410000000000000000e+02 3.000000000000000000e+00
8.440000000000000000e+02 3.000000000000000000e+00
8.450000000000000000e+02 3.000000000000000000e+00
8.460000000000000000e+02 3.000000000000000000e+00
1.000000000000000000e+01 4.000000000000000000e+00
1.100000000000000000e+01 4.000000000000000000e+00
1.200000000000000000e+01 4.000000000000000000e+00
1.250000000000000000e+02 4.000000000000000000e+00
1.260000000000000000e+02 4.000000000000000000e+00
1.270000000000000000e+02 4.000000000000000000e+00
1.290000000000000000e+02 4.000000000000000000e+00
1.300000000000000000e+02 4.000000000000000000e+00
1.310000000000000000e+02 4.000000000000000000e+00
1.320000000000000000e+02 4.000000000000000000e+00
2.980000000000000000e+02 4.000000000000000000e+00
2.990000000000000000e+02 4.000000000000000000e+00
3.000000000000000000e+02 4.000000000000000000e+00
3.020000000000000000e+02 4.000000000000000000e+00
3.030000000000000000e+02 4.000000000000000000e+00
3.040000000000000000e+02 4.000000000000000000e+00
3.050000000000000000e+02 4.000000000000000000e+00
4.720000000000000000e+02 4.000000000000000000e+00
4.730000000000000000e+02 4.000000000000000000e+00
4.740000000000000000e+02 4.000000000000000000e+00
4.750000000000000000e+02 4.000000000000000000e+00
4.770000000000000000e+02 4.000000000000000000e+00
4.780000000000000000e+02 4.000000000000000000e+00
4.790000000000000000e+02 4.000000000000000000e+00
6.560000000000000000e+02 4.000000000000000000e+00
6.570000000000000000e+02 4.000000000000000000e+00
6.580000000000000000e+02 4.000000000000000000e+00
6.600000000000000000e+02 4.000000000000000000e+00
6.610000000000000000e+02 4.000000000000000000e+00
6.620000000000000000e+02 4.000000000000000000e+00
8.390000000000000000e+02 4.000000000000000000e+00
8.400000000000000000e+02 4.000000000000000000e+00
8.410000000000000000e+02 4.000000000000000000e+00
8.440000000000000000e+02 4.000000000000000000e+00
8.450000000000000000e+02 4.000000000000000000e+00
8.460000000000000000e+02 4.000000000000000000e+00
1.000000000000000000e+01 5.000000000000000000e+00
1.100000000000000000e+01 5.000000000000000000e+00
1.200000000000000000e+01 5.000000000000000000e+00
1.250000000000000000e+02 5.000000000000000000e+00
1.260000000000000000e+02 5.000000000000000000e+00
1.270000000000000000e+02 5.000000000000000000e+00
1.290000000000000000e+02 5.000000000000000000e+00
1.300000000000000000e+02 5.000000000000000000e+00
1.310000000000000000e+02 5.000000000000000000e+00
2.980000000000000000e+02 5.000000000000000000e+00
2.990000000000000000e+02 5.000000000000000000e+00
3.000000000000000000e+02 5.000000000000000000e+00
3.020000000000000000e+02 5.000000000000000000e+00
3.030000000000000000e+02 5.000000000000000000e+00
3.040000000000000000e+02 5.000000000000000000e+00
3.050000000000000000e+02 5.000000000000000000e+00
4.720000000000000000e+02 5.000000000000000000e+00
4.730000000000000000e+02 5.000000000000000000e+00
4.740000000000000000e+02 5.000000000000000000e+00
4.750000000000000000e+02 5.000000000000000000e+00
4.770000000000000000e+02 5.000000000000000000e+00
4.780000000000000000e+02 5.000000000000000000e+00
4.790000000000000000e+02 5.000000000000000000e+00
6.560000000000000000e+02 5.000000000000000000e+00
6.570000000000000000e+02 5.000000000000000000e+00
6.580000000000000000e+02 5.000000000000000000e+00
6.600000000000000000e+02 5.000000000000000000e+00
6.610000000000000000e+02 5.000000000000000000e+00
6.620000000000000000e+02 5.000000000000000000e+00
8.390000000000000000e+02 5.000000000000000000e+00
8.400000000000000000e+02 5.000000000000000000e+00
8.410000000000000000e+02 5.000000000000000000e+00
8.440000000000000000e+02 5.000000000000000000e+00
8.450000000000000000e+02 5.000000000000000000e+00
8.460000000000000000e+02 5.000000000000000000e+00
1.000000000000000000e+01 6.000000000000000000e+00
1.100000000000000000e+01 6.000000000000000000e+00
1.200000000000000000e+01 6.000000000000000000e+00
1.250000000000000000e+02 6.000000000000000000e+00
1.260000000000000000e+02 6.000000000000000000e+00
1.270000000000000000e+02 6.000000000000000000e+00
1.290000000000000000e+02 6.000000000000000000e+00
1.300000000000000000e+02 6.000000000000000000e+00
1.310000000000000000e+02 6.000000000000000000e+00
2.980000000000000000e+02 6.000000000000000000e+00
2.990000000000000000e+02 6.000000000000000000e+00
3.000000000000000000e+02 6.000000000000000000e+00
3.020000000000000000e+02 6.000000000000000000e+00
3.030000000000000000e+02 6.000000000000000000e+00
3.040000000000000000e+02 6.000000000000000000e+00
3.050000000000000000e+02 6.000000000000000000e+00
4.720000000000000000e+02 6.000000000000000000e+00
4.730000000000000000e+02 6.000000000000000000e+00
4.740000000000000000e+02 6.000000000000000000e+00
4.750000000000000000e+02 6.000000000000000000e+00
4.770000000000000000e+02 6.000000000000000000e+00
4.780000000000000000e+02 6.000000000000000000e+00
4.790000000000000000e+02 6.000000000000000000e+00
6.560000000000000000e+02 6.000000000000000000e+00
6.570000000000000000e+02 6.000000000000000000e+00
6.580000000000000000e+02 6.000000000000000000e+00
6.600000000000000000e+02 6.000000000000000000e+00
6.610000000000000000e+02 6.000000000000000000e+00
6.620000000000000000e+02 6.000000000000000000e+00
8.390000000000000000e+02 6.000000000000000000e+00
8.400000000000000000e+02 6.000000000000000000e+00
8.410000000000000000e+02 6.000000000000000000e+00
8.440000000000000000e+02 6.000000000000000000e+00
8.450000000000000000e+02 6.000000000000000000e+00
8.460000000000000000e+02 6.000000000000000000e+00
1.000000000000000000e+01 7.000000000000000000e+00
1.100000000000000000e+01 7.000000000000000000e+00
1.200000000000000000e+01 7.000000000000000000e+00
1.250000000000000000e+02 7.000000000000000000e+00
1.260000000000000000e+02 7.000000000000000000e+00
1.270000000000000000e+02 7.000000000000000000e+00
1.290000000000000000e+02 7.000000000000000000e+00
1.300000000000000000e+02 7.000000000000000000e+00
1.310000000000000000e+02 7.000000000000000000e+00
2.980000000000000000e+02 7.000000000000000000e+00
2.990000000000000000e+02 7.000000000000000000e+00
3.000000000000000000e+02 7.000000000000000000e+00
3.020000000000000000e+02 7.000000000000000000e+00
3.030000000000000000e+02 7.000000000000000000e+00
3.040000000000000000e+02 7.000000000000000000e+00
4.720000000000000000e+02 7.000000000000000000e+00
4.730000000000000000e+02 7.000000000000000000e+00
4.740000000000000000e+02 7.000000000000000000e+00
4.750000000000000000e+02 7.000000000000000000e+00
4.770000000000000000e+02 7.000000000000000000e+00
4.780000000000000000e+02 7.000000000000000000e+00
4.790000000000000000e+02 7.000000000000000000e+00
6.560000000000000000e+02 7.000000000000000000e+00
6.570000000000000000e+02 7.000000000000000000e+00
6.580000000000000000e+02 7.000000000000000000e+00
6.600000000000000000e+02 7.000000000000000000e+00
6.610000000000000000e+02 7.000000000000000000e+00
6.620000000000000000e+02 7.000000000000000000e+00
8.390000000000000000e+02 7.000000000000000000e+00
8.400000000000000000e+02 7.000000000000000000e+00
8.410000000000000000e+02 7.000000000000000000e+00
8.430000000000000000e+02 7.000000000000000000e+00
8.440000000000000000e+02 7.000000000000000000e+00
8.450000000000000000e+02 7.000000000000000000e+00
8.460000000000000000e+02 7.000000000000000000e+00
1.000000000000000000e+01 8.000000000000000000e+00
1.100000000000000000e+01 8.000000000000000000e+00
1.200000000000000000e+01 8.000000000000000000e+00
1.250000000000000000e+02 8.000000000000000000e+00
1.260000000000000000e+02 8.000000000000000000e+00
1.270000000000000000e+02 8.000000000000000000e+00
1.280000000000000000e+02 8.000000000000000000e+00
1.290000000000000000e+02 8.000000000000000000e+00
1.300000000000000000e+02 8.000000000000000000e+00
1.310000000000000000e+02 8.000000000000000000e+00
2.980000000000000000e+02 8.000000000000000000e+00
2.990000000000000000e+02 8.000000000000000000e+00
3.000000000000000000e+02 8.000000000000000000e+00
3.020000000000000000e+02 8.000000000000000000e+00
3.030000000000000000e+02 8.000000000000000000e+00
3.040000000000000000e+02 8.000000000000000000e+00
4.720000000000000000e+02 8.000000000000000000e+00
4.730000000000000000e+02 8.000000000000000000e+00
4.740000000000000000e+02 8.000000000000000000e+00
4.750000000000000000e+02 8.000000000000000000e+00
4.760000000000000000e+02 8.000000000000000000e+00
4.770000000000000000e+02 8.000000000000000000e+00
4.780000000000000000e+02 8.000000000000000000e+00
4.790000000000000000e+02 8.000000000000000000e+00
6.560000000000000000e+02 8.000000000000000000e+00
6.570000000000000000e+02 8.000000000000000000e+00
6.580000000000000000e+02 8.000000000000000000e+00
6.600000000000000000e+02 8.000000000000000000e+00
6.610000000000000000e+02 8.000000000000000000e+00
6.620000000000000000e+02 8.000000000000000000e+00
8.390000000000000000e+02 8.000000000000000000e+00
8.400000000000000000e+02 8.000000000000000000e+00
8.410000000000000000e+02 8.000000000000000000e+00
8.430000000000000000e+02 8.000000000000000000e+00
8.440000000000000000e+02 8.000000000000000000e+00
8.450000000000000000e+02 8.000000000000000000e+00
8.460000000000000000e+02 8.000000000000000000e+00
1.000000000000000000e+01 9.000000000000000000e+00
1.100000000000000000e+01 9.000000000000000000e+00
1.200000000000000000e+01 9.000000000000000000e+00
1.250000000000000000e+02 9.000000000000000000e+00
1.260000000000000000e+02 9.000000000000000000e+00
1.270000000000000000e+02 9.000000000000000000e+00
1.280000000000000000e+02 9.000000000000000000e+00
1.290000000000000000e+02 9.000000000000000000e+00
1.300000000000000000e+02 9.000000000000000000e+00
1.310000000000000000e+02 9.000000000000000000e+00
2.980000000000000000e+02 9.000000000000000000e+00
2.990000000000000000e+02 9.000000000000000000e+00
3.000000000000000000e+02 9.000000000000000000e+00
3.020000000000000000e+02 9.000000000000000000e+00
3.030000000000000000e+02 9.000000000000000000e+00
3.040000000000000000e+02 9.000000000000000000e+00
4.720000000000000000e+02 9.000000000000000000e+00
4.730000000000000000e+02 9.000000000000000000e+00
4.740000000000000000e+02 9.000000000000000000e+00
4.750000000000000000e+02 9.000000000000000000e+00
4.760000000000000000e+02 9.000000000000000000e+00
4.770000000000000000e+02 9.000000000000000000e+00
4.780000000000000000e+02 9.000000000000000000e+00
4.790000000000000000e+02 9.000000000000000000e+00
6.560000000000000000e+02 9.000000000000000000e+00
6.570000000000000000e+02 9.000000000000000000e+00
6.580000000000000000e+02 9.000000000000000000e+00
6.600000000000000000e+02 9.000000000000000000e+00
6.610000000000000000e+02 9.000000000000000000e+00
6.620000000000000000e+02 9.000000000000000000e+00
8.390000000000000000e+02 9.000000000000000000e+00
8.400000000000000000e+02 9.000000000000000000e+00
8.410000000000000000e+02 9.000000000000000000e+00
8.430000000000000000e+02 9.000000000000000000e+00
8.440000000000000000e+02 9.000000000000000000e+00
8.450000000000000000e+02 9.000000000000000000e+00
8.460000000000000000e+02 9.000000000000000000e+00
1.000000000000000000e+01 1.000000000000000000e+01
1.100000000000000000e+01 1.000000000000000000e+01
1.200000000000000000e+01 1.000000000000000000e+01
1.250000000000000000e+02 1.000000000000000000e+01
1.260000000000000000e+02 1.000000000000000000e+01
1.270000000000000000e+02 1.000000000000000000e+01
1.280000000000000000e+02 1.000000000000000000e+01
1.290000000000000000e+02 1.000000000000000000e+01
1.300000000000000000e+02 1.000000000000000000e+01
1.310000000000000000e+02 1.000000000000000000e+01
2.980000000000000000e+02 1.000000000000000000e+01
2.990000000000000000e+02 1.000000000000000000e+01
3.000000000000000000e+02 1.000000000000000000e+01
3.020000000000000000e+02 1.000000000000000000e+01
3.030000000000000000e+02 1.000000000000000000e+01
3.040000000000000000e+02 1.000000000000000000e+01
4.730000000000000000e+02 1.000000000000000000e+01
4.740000000000000000e+02 1.000000000000000000e+01
4.750000000000000000e+02 1.000000000000000000e+01
4.760000000000000000e+02 1.000000000000000000e+01
4.770000000000000000e+02 1.000000000000000000e+01
4.780000000000000000e+02 1.000000000000000000e+01
4.790000000000000000e+02 1.000000000000000000e+01
6.560000000000000000e+02 1.000000000000000000e+01
6.570000000000000000e+02 1.000000000000000000e+01
6.580000000000000000e+02 1.000000000000000000e+01
6.600000000000000000e+02 1.000000000000000000e+01
6.610000000000000000e+02 1.000000000000000000e+01
6.620000000000000000e+02 1.000000000000000000e+01
8.390000000000000000e+02 1.000000000000000000e+01
8.400000000000000000e+02 1.000000000000000000e+01
8.410000000000000000e+02 1.000000000000000000e+01
8.430000000000000000e+02 1.000000000000000000e+01
8.440000000000000000e+02 1.000000000000000000e+01
8.450000000000000000e+02 1.000000000000000000e+01
8.460000000000000000e+02 1.000000000000000000e+01
1.000000000000000000e+01 1.100000000000000000e+01
1.100000000000000000e+01 1.100000000000000000e+01
1.200000000000000000e+01 1.100000000000000000e+01
1.250000000000000000e+02 1.100000000000000000e+01
1.260000000000000000e+02 1.100000000000000000e+01
1.270000000000000000e+02 1.100000000000000000e+01
1.280000000000000000e+02 1.100000000000000000e+01
1.290000000000000000e+02 1.100000000000000000e+01
1.300000000000000000e+02 1.100000000000000000e+01
1.310000000000000000e+02 1.100000000000000000e+01
2.980000000000000000e+02 1.100000000000000000e+01
2.990000000000000000e+02 1.100000000000000000e+01
3.000000000000000000e+02 1.100000000000000000e+01
3.020000000000000000e+02 1.100000000000000000e+01
3.030000000000000000e+02 1.100000000000000000e+01
3.040000000000000000e+02 1.100000000000000000e+01
4.730000000000000000e+02 1.100000000000000000e+01
4.740000000000000000e+02 1.100000000000000000e+01
4.750000000000000000e+02 1.100000000000000000e+01
4.760000000000000000e+02 1.100000000000000000e+01
4.770000000000000000e+02 1.100000000000000000e+01
4.780000000000000000e+02 1.100000000000000000e+01
6.560000000000000000e+02 1.100000000000000000e+01
6.570000000000000000e+02 1.100000000000000000e+01
6.580000000000000000e+02 1.100000000000000000e+01
6.600000000000000000e+02 1.100000000000000000e+01
6.610000000000000000e+02 1.100000000000000000e+01
6.620000000000000000e+02 1.100000000000000000e+01
8.390000000000000000e+02 1.100000000000000000e+01
8.400000000000000000e+02 1.100000000000000000e+01
8.410000000000000000e+02 1.100000000000000000e+01
8.430000000000000000e+02 1.100000000000000000e+01
8.440000000000000000e+02 1.100000000000000000e+01
8.450000000000000000e+02 1.100000000000000000e+01
8.460000000000000000e+02 1.100000000000000000e+01
1.000000000000000000e+01 1.200000000000000000e+01
1.100000000000000000e+01 1.200000000000000000e+01
1.200000000000000000e+01 1.200000000000000000e+01
1.250000000000000000e+02 1.200000000000000000e+01
1.260000000000000000e+02 1.200000000000000000e+01
1.270000000000000000e+02 1.200000000000000000e+01
1.280000000000000000e+02 1.200000000000000000e+01
1.290000000000000000e+02 1.200000000000000000e+01
1.300000000000000000e+02 1.200000000000000000e+01
1.310000000000000000e+02 1.200000000000000000e+01
2.980000000000000000e+02 1.200000000000000000e+01
2.990000000000000000e+02 1.200000000000000000e+01
3.000000000000000000e+02 1.200000000000000000e+01
3.020000000000000000e+02 1.200000000000000000e+01
3.030000000000000000e+02 1.200000000000000000e+01
3.040000000000000000e+02 1.200000000000000000e+01
4.730000000000000000e+02 1.200000000000000000e+01
4.740000000000000000e+02 1.200000000000000000e+01
4.750000000000000000e+02 1.200000000000000000e+01
4.760000000000000000e+02 1.200000000000000000e+01
4.770000000000000000e+02 1.200000000000000000e+01
4.780000000000000000e+02 1.200000000000000000e+01
6.560000000000000000e+02 1.200000000000000000e+01
6.570000000000000000e+02 1.200000000000000000e+01
6.580000000000000000e+02 1.200000000000000000e+01
6.600000000000000000e+02 1.200000000000000000e+01
6.610000000000000000e+02 1.200000000000000000e+01
6.620000000000000000e+02 1.200000000000000000e+01
8.390000000000000000e+02 1.200000000000000000e+01
8.400000000000000000e+02 1.200000000000000000e+01
8.410000000000000000e+02 1.200000000000000000e+01
8.430000000000000000e+02 1.200000000000000000e+01
8.440000000000000000e+02 1.200000000000000000e+01
8.450000000000000000e+02 1.200000000000000000e+01
1.000000000000000000e+01 1.300000000000000000e+01
1.100000000000000000e+01 1.300000000000000000e+01
1.200000000000000000e+01 1.300000000000000000e+01
1.250000000000000000e+02 1.300000000000000000e+01
1.260000000000000000e+02 1.300000000000000000e+01
1.270000000000000000e+02 1.300000000000000000e+01
1.280000000000000000e+02 1.300000000000000000e+01
1.290000000000000000e+02 1.300000000000000000e+01
1.300000000000000000e+02 1.300000000000000000e+01
1.310000000000000000e+02 1.300000000000000000e+01
2.980000000000000000e+02 1.300000000000000000e+01
2.990000000000000000e+02 1.300000000000000000e+01
3.000000000000000000e+02 1.300000000000000000e+01
3.020000000000000000e+02 1.300000000000000000e+01
3.030000000000000000e+02 1.300000000000000000e+01
3.040000000000000000e+02 1.300000000000000000e+01
4.730000000000000000e+02 1.300000000000000000e+01
4.740000000000000000e+02 1.300000000000000000e+01
4.750000000000000000e+02 1.300000000000000000e+01
4.760000000000000000e+02 1.300000000000000000e+01
4.770000000000000000e+02 1.300000000000000000e+01
4.780000000000000000e+02 1.300000000000000000e+01
6.560000000000000000e+02 1.300000000000000000e+01
6.570000000000000000e+02 1.300000000000000000e+01
6.580000000000000000e+02 1.300000000000000000e+01
6.600000000000000000e+02 1.300000000000000000e+01
6.610000000000000000e+02 1.300000000000000000e+01
6.620000000000000000e+02 1.300000000000000000e+01
8.390000000000000000e+02 1.300000000000000000e+01
8.400000000000000000e+02 1.300000000000000000e+01
8.410000000000000000e+02 1.300000000000000000e+01
8.430000000000000000e+02 1.300000000000000000e+01
8.440000000000000000e+02 1.300000000000000000e+01
8.450000000000000000e+02 1.300000000000000000e+01
1.000000000000000000e+01 1.400000000000000000e+01
1.100000000000000000e+01 1.400000000000000000e+01
1.200000000000000000e+01 1.400000000000000000e+01
1.250000000000000000e+02 1.400000000000000000e+01
1.260000000000000000e+02 1.400000000000000000e+01
1.270000000000000000e+02 1.400000000000000000e+01
1.280000000000000000e+02 1.400000000000000000e+01
1.290000000000000000e+02 1.400000000000000000e+01
1.300000000000000000e+02 1.400000000000000000e+01
1.310000000000000000e+02 1.400000000000000000e+01
2.980000000000000000e+02 1.400000000000000000e+01
2.990000000000000000e+02 1.400000000000000000e+01
3.000000000000000000e+02 1.400000000000000000e+01
3.020000000000000000e+02 1.400000000000000000e+01
3.030000000000000000e+02 1.400000000000000000e+01
3.040000000000000000e+02 1.400000000000000000e+01
4.730000000000000000e+02 1.400000000000000000e+01
4.740000000000000000e+02 1.400000000000000000e+01
4.750000000000000000e+02 1.400000000000000000e+01
4.760000000000000000e+02 1.400000000000000000e+01
4.770000000000000000e+02 1.400000000000000000e+01
4.780000000000000000e+02 1.400000000000000000e+01
6.560000000000000000e+02 1.400000000000000000e+01
6.570000000000000000e+02 1.400000000000000000e+01
6.580000000000000000e+02 1.400000000000000000e+01
6.590000000000000000e+02 1.400000000000000000e+01
6.600000000000000000e+02 1.400000000000000000e+01
6.610000000000000000e+02 1.400000000000000000e+01
6.620000000000000000e+02 1.400000000000000000e+01
8.390000000000000000e+02 1.400000000000000000e+01
8.400000000000000000e+02 1.400000000000000000e+01
8.410000000000000000e+02 1.400000000000000000e+01
8.430000000000000000e+02 1.400000000000000000e+01
8.440000000000000000e+02 1.400000000000000000e+01
8.450000000000000000e+02 1.400000000000000000e+01
1.000000000000000000e+01 1.500000000000000000e+01
1.100000000000000000e+01 1.500000000000000000e+01
1.200000000000000000e+01 1.500000000000000000e+01
1.250000000000000000e+02 1.500000000000000000e+01
1.260000000000000000e+02 1.500000000000000000e+01
1.270000000000000000e+02 1.500000000000000000e+01
1.280000000000000000e+02 1.500000000000000000e+01
1.290000000000000000e+02 1.500000000000000000e+01
1.300000000000000000e+02 1.500000000000000000e+01
1.310000000000000000e+02 1.500000000000000000e+01
2.980000000000000000e+02 1.500000000000000000e+01
2.990000000000000000e+02 1.500000000000000000e+01
3.000000000000000000e+02 1.500000000000000000e+01
3.020000000000000000e+02 1.500000000000000000e+01
3.030000000000000000e+02 1.500000000000000000e+01
3.040000000000000000e+02 1.500000000000000000e+01
4.730000000000000000e+02 1.500000000000000000e+01
4.740000000000000000e+02 1.500000000000000000e+01
4.750000000000000000e+02 1.500000000000000000e+01
4.760000000000000000e+02 1.500000000000000000e+01
4.770000000000000000e+02 1.500000000000000000e+01
4.780000000000000000e+02 1.500000000000000000e+01
6.560000000000000000e+02 1.500000000000000000e+01
6.570000000000000000e+02 1.500000000000000000e+01
6.580000000000000000e+02 1.500000000000000000e+01
6.590000000000000000e+02 1.500000000000000000e+01
6.600000000000000000e+02 1.500000000000000000e+01
6.610000000000000000e+02 1.500000000000000000e+01
6.620000000000000000e+02 1.500000000000000000e+01
8.390000000000000000e+02 1.500000000000000000e+01
8.400000000000000000e+02 1.500000000000000000e+01
8.410000000000000000e+02 1.500000000000000000e+01
8.430000000000000000e+02 1.500000000000000000e+01
8.440000000000000000e+02 1.500000000000000000e+01
8.450000000000000000e+02 1.500000000000000000e+01
1.000000000000000000e+01 1.600000000000000000e+01
1.100000000000000000e+01 1.600000000000000000e+01
1.200000000000000000e+01 1.600000000000000000e+01
1.250000000000000000e+02 1.600000000000000000e+01
1.260000000000000000e+02 1.600000000000000000e+01
1.270000000000000000e+02 1.600000000000000000e+01
1.280000000000000000e+02 1.600000000000000000e+01
1.290000000000000000e+02 1.600000000000000000e+01
1.300000000000000000e+02 1.600000000000000000e+01
1.310000000000000000e+02 1.600000000000000000e+01
2.980000000000000000e+02 1.600000000000000000e+01
2.990000000000000000e+02 1.600000000000000000e+01
3.000000000000000000e+02 1.600000000000000000e+01
3.020000000000000000e+02 1.600000000000000000e+01
3.030000000000000000e+02 1.600000000000000000e+01
3.040000000000000000e+02 1.600000000000000000e+01
4.730000000000000000e+02 1.600000000000000000e+01
4.740000000000000000e+02 1.600000000000000000e+01
4.750000000000000000e+02 1.600000000000000000e+01
4.760000000000000000e+02 1.600000000000000000e+01
4.770000000000000000e+02 1.600000000000000000e+01
4.780000000000000000e+02 1.600000000000000000e+01
6.560000000000000000e+02 1.600000000000000000e+01
6.570000000000000000e+02 1.600000000000000000e+01
6.580000000000000000e+02 1.600000000000000000e+01
6.590000000000000000e+02 1.600000000000000000e+01
6.600000000000000000e+02 1.600000000000000000e+01
6.610000000000000000e+02 1.600000000000000000e+01
6.620000000000000000e+02 1.600000000000000000e+01
8.390000000000000000e+02 1.600000000000000000e+01
8.400000000000000000e+02 1.600000000000000000e+01
8.410000000000000000e+02 1.600000000000000000e+01
8.430000000000000000e+02 1.600000000000000000e+01
8.440000000000000000e+02 1.600000000000000000e+01
8.450000000000000000e+02 1.600000000000000000e+01
1.000000000000000000e+01 1.700000000000000000e+01
1.100000000000000000e+01 1.700000000000000000e+01
1.200000000000000000e+01 1.700000000000000000e+01
1.260000000000000000e+02 1.700000000000000000e+01
1.270000000000000000e+02 1.700000000000000000e+01
1.280000000000000000e+02 1.700000000000000000e+01
1.290000000000000000e+02 1.700000000000000000e+01
1.300000000000000000e+02 1.700000000000000000e+01
2.980000000000000000e+02 1.700000000000000000e+01
2.990000000000000000e+02 1.700000000000000000e+01
3.000000000000000000e+02 1.700000000000000000e+01
3.010000000000000000e+02 1.700000000000000000e+01
3.020000000000000000e+02 1.700000000000000000e+01
3.030000000000000000e+02 1.700000000000000000e+01
3.040000000000000000e+02 1.700000000000000000e+01
4.730000000000000000e+02 1.700000000000000000e+01
4.740000000000000000e+02 1.700000000000000000e+01
4.750000000000000000e+02 1.700000000000000000e+01
4.760000000000000000e+02 1.700000000000000000e+01
4.770000000000000000e+02 1.700000000000000000e+01
4.780000000000000000e+02 1.700000000000000000e+01
6.560000000000000000e+02 1.700000000000000000e+01
6.570000000000000000e+02 1.700000000000000000e+01
6.580000000000000000e+02 1.700000000000000000e+01
6.590000000000000000e+02 1.700000000000000000e+01
6.600000000000000000e+02 1.700000000000000000e+01
6.610000000000000000e+02 1.700000000000000000e+01
6.620000000000000000e+02 1.700000000000000000e+01
8.390000000000000000e+02 1.700000000000000000e+01
8.400000000000000000e+02 1.700000000000000000e+01
8.410000000000000000e+02 1.700000000000000000e+01
8.430000000000000000e+02 1.700000000000000000e+01
8.440000000000000000e+02 1.700000000000000000e+01
8.450000000000000000e+02 1.700000000000000000e+01
1.000000000000000000e+01 1.800000000000000000e+01
1.100000000000000000e+01 1.800000000000000000e+01
1.200000000000000000e+01 1.800000000000000000e+01
1.260000000000000000e+02 1.800000000000000000e+01
1.270000000000000000e+02 1.800000000000000000e+01
1.280000000000000000e+02 1.800000000000000000e+01
1.290000000000000000e+02 1.800000000000000000e+01
1.300000000000000000e+02 1.800000000000000000e+01
2.980000000000000000e+02 1.800000000000000000e+01
2.990000000000000000e+02 1.800000000000000000e+01
3.000000000000000000e+02 1.800000000000000000e+01
3.010000000000000000e+02 1.800000000000000000e+01
3.020000000000000000e+02 1.800000000000000000e+01
3.030000000000000000e+02 1.800000000000000000e+01
3.040000000000000000e+02 1.800000000000000000e+01
4.730000000000000000e+02 1.800000000000000000e+01
4.740000000000000000e+02 1.800000000000000000e+01
4.750000000000000000e+02 1.800000000000000000e+01
4.760000000000000000e+02 1.800000000000000000e+01
4.770000000000000000e+02 1.800000000000000000e+01
4.780000000000000000e+02 1.800000000000000000e+01
6.560000000000000000e+02 1.800000000000000000e+01
6.570000000000000000e+02 1.800000000000000000e+01
6.580000000000000000e+02 1.800000000000000000e+01
6.590000000000000000e+02 1.800000000000000000e+01
6.600000000000000000e+02 1.800000000000000000e+01
6.610000000000000000e+02 1.800000000000000000e+01
6.620000000000000000e+02 1.800000000000000000e+01
8.390000000000000000e+02 1.800000000000000000e+01
8.400000000000000000e+02 1.800000000000000000e+01
8.410000000000000000e+02 1.800000000000000000e+01
8.430000000000000000e+02 1.800000000000000000e+01
8.440000000000000000e+02 1.800000000000000000e+01
8.450000000000000000e+02 1.800000000000000000e+01
1.000000000000000000e+01 1.900000000000000000e+01
1.100000000000000000e+01 1.900000000000000000e+01
1.200000000000000000e+01 1.900000000000000000e+01
1.260000000000000000e+02 1.900000000000000000e+01
1.270000000000000000e+02 1.900000000000000000e+01
1.280000000000000000e+02 1.900000000000000000e+01
1.290000000000000000e+02 1.900000000000000000e+01
1.300000000000000000e+02 1.900000000000000000e+01
2.980000000000000000e+02 1.900000000000000000e+01
2.990000000000000000e+02 1.900000000000000000e+01
3.000000000000000000e+02 1.900000000000000000e+01
3.010000000000000000e+02 1.900000000000000000e+01
3.020000000000000000e+02 1.900000000000000000e+01
3.030000000000000000e+02 1.900000000000000000e+01
3.040000000000000000e+02 1.900000000000000000e+01
4.730000000000000000e+02 1.900000000000000000e+01
4.740000000000000000e+02 1.900000000000000000e+01
4.750000000000000000e+02 1.900000000000000000e+01
4.760000000000000000e+02 1.900000000000000000e+01
4.770000000000000000e+02 1.900000000000000000e+01
4.780000000000000000e+02 1.900000000000000000e+01
6.560000000000000000e+02 1.900000000000000000e+01
6.570000000000000000e+02 1.900000000000000000e+01
6.580000000000000000e+02 1.900000000000000000e+01
6.590000000000000000e+02 1.900000000000000000e+01
6.600000000000000000e+02 1.900000000000000000e+01
6.610000000000000000e+02 1.900000000000000000e+01
8.390000000000000000e+02 1.900000000000000000e+01
8.400000000000000000e+02 1.900000000000000000e+01
8.410000000000000000e+02 1.900000000000000000e+01
8.430000000000000000e+02 1.900000000000000000e+01
8.440000000000000000e+02 1.900000000000000000e+01
8.450000000000000000e+02 1.900000000000000000e+01
1.000000000000000000e+01 2.000000000000000000e+01
1.100000000000000000e+01 2.000000000000000000e+01
1.200000000000000000e+01 2.000000000000000000e+01
1.260000000000000000e+02 2.000000000000000000e+01
1.270000000000000000e+02 2.000000000000000000e+01
1.280000000000000000e+02 2.000000000000000000e+01
1.290000000000000000e+02 2.000000000000000000e+01
1.300000000000000000e+02 2.000000000000000000e+01
2.980000000000000000e+02 2.000000000000000000e+01
2.990000000000000000e+02 2.000000000000000000e+01
3.000000000000000000e+02 2.000000000000000000e+01
3.010000000000000000e+02 2.000000000000000000e+01
3.020000000000000000e+02 2.000000000000000000e+01
3.030000000000000000e+02 2.000000000000000000e+01
3.040000000000000000e+02 2.000000000000000000e+01
4.730000000000000000e+02 2.000000000000000000e+01
4.740000000000000000e+02 2.000000000000000000e+01
4.750000000000000000e+02 2.000000000000000000e+01
4.760000000000000000e+02 2.000000000000000000e+01
4.770000000000000000e+02 2.000000000000000000e+01
4.780000000000000000e+02 2.000000000000000000e+01
6.560000000000000000e+02 2.000000000000000000e+01
6.570000000000000000e+02 2.000000000000000000e+01
6.580000000000000000e+02 2.000000000000000000e+01
6.590000000000000000e+02 2.000000000000000000e+01
6.600000000000000000e+02 2.000000000000000000e+01
6.610000000000000000e+02 2.000000000000000000e+01
8.390000000000000000e+02 2.000000000000000000e+01
8.400000000000000000e+02 2.000000000000000000e+01
8.410000000000000000e+02 2.000000000000000000e+01
8.430000000000000000e+02 2.000000000000000000e+01
8.440000000000000000e+02 2.000000000000000000e+01
8.450000000000000000e+02 2.000000000000000000e+01
1.000000000000000000e+01 2.100000000000000000e+01
1.100000000000000000e+01 2.100000000000000000e+01
1.200000000000000000e+01 2.100000000000000000e+01
1.260000000000000000e+02 2.100000000000000000e+01
1.270000000000000000e+02 2.100000000000000000e+01
1.280000000000000000e+02 2.100000000000000000e+01
1.290000000000000000e+02 2.100000000000000000e+01
1.300000000000000000e+02 2.100000000000000000e+01
2.980000000000000000e+02 2.100000000000000000e+01
2.990000000000000000e+02 2.100000000000000000e+01
3.000000000000000000e+02 2.100000000000000000e+01
3.010000000000000000e+02 2.100000000000000000e+01
3.020000000000000000e+02 2.100000000000000000e+01
3.030000000000000000e+02 2.100000000000000000e+01
4.730000000000000000e+02 2.100000000000000000e+01
4.740000000000000000e+02 2.100000000000000000e+01
4.750000000000000000e+02 2.100000000000000000e+01
4.760000000000000000e+02 2.100000000000000000e+01
4.770000000000000000e+02 2.100000000000000000e+01
6.560000000000000000e+02 2.100000000000000000e+01
6.570000000000000000e+02 2.100000000000000000e+01
6.580000000000000000e+02 2.100000000000000000e+01
6.590000000000000000e+02 2.100000000000000000e+01
6.600000000000000000e+02 2.100000000000000000e+01
6.610000000000000000e+02 2.100000000000000000e+01
8.390000000000000000e+02 2.100000000000000000e+01
8.400000000000000000e+02 2.100000000000000000e+01
8.410000000000000000e+02 2.100000000000000000e+01
8.420000000000000000e+02 2.100000000000000000e+01
8.430000000000000000e+02 2.100000000000000000e+01
8.440000000000000000e+02 2.100000000000000000e+01
8.450000000000000000e+02 2.100000000000000000e+01
1.000000000000000000e+01 2.200000000000000000e+01
1.100000000000000000e+01 2.200000000000000000e+01
1.200000000000000000e+01 2.200000000000000000e+01
1.260000000000000000e+02 2.200000000000000000e+01
1.270000000000000000e+02 2.200000000000000000e+01
1.280000000000000000e+02 2.200000000000000000e+01
1.290000000000000000e+02 2.200000000000000000e+01
1.300000000000000000e+02 2.200000000000000000e+01
2.980000000000000000e+02 2.200000000000000000e+01
2.990000000000000000e+02 2.200000000000000000e+01
3.000000000000000000e+02 2.200000000000000000e+01
3.010000000000000000e+02 2.200000000000000000e+01
3.020000000000000000e+02 2.200000000000000000e+01
3.030000000000000000e+02 2.200000000000000000e+01
4.730000000000000000e+02 2.200000000000000000e+01
4.740000000000000000e+02 2.200000000000000000e+01
4.750000000000000000e+02 2.200000000000000000e+01
4.760000000000000000e+02 2.200000000000000000e+01
4.770000000000000000e+02 2.200000000000000000e+01
6.560000000000000000e+02 2.200000000000000000e+01
6.570000000000000000e+02 2.200000000000000000e+01
6.580000000000000000e+02 2.200000000000000000e+01
6.590000000000000000e+02 2.200000000000000000e+01
6.600000000000000000e+02 2.200000000000000000e+01
6.610000000000000000e+02 2.200000000000000000e+01
8.390000000000000000e+02 2.200000000000000000e+01
8.400000000000000000e+02 2.200000000000000000e+01
8.410000000000000000e+02 2.200000000000000000e+01
8.420000000000000000e+02 2.200000000000000000e+01
8.430000000000000000e+02 2.200000000000000000e+01
8.440000000000000000e+02 2.200000000000000000e+01
1.000000000000000000e+01 2.300000000000000000e+01
1.100000000000000000e+01 2.300000000000000000e+01
1.200000000000000000e+01 2.300000000000000000e+01
1.260000000000000000e+02 2.300000000000000000e+01
1.270000000000000000e+02 2.300000000000000000e+01
1.280000000000000000e+02 2.300000000000000000e+01
1.290000000000000000e+02 2.300000000000000000e+01
1.300000000000000000e+02 2.300000000000000000e+01
2.980000000000000000e+02 2.300000000000000000e+01
2.990000000000000000e+02 2.300000000000000000e+01
3.000000000000000000e+02 2.300000000000000000e+01
3.010000000000000000e+02 2.300000000000000000e+01
3.020000000000000000e+02 2.300000000000000000e+01
3.030000000000000000e+02 2.300000000000000000e+01
4.730000000000000000e+02 2.300000000000000000e+01
4.740000000000000000e+02 2.300000000000000000e+01
4.750000000000000000e+02 2.300000000000000000e+01
4.760000000000000000e+02 2.300000000000000000e+01
4.770000000000000000e+02 2.300000000000000000e+01
6.560000000000000000e+02 2.300000000000000000e+01
6.570000000000000000e+02 2.300000000000000000e+01
6.580000000000000000e+02 2.300000000000000000e+01
6.590000000000000000e+02 2.300000000000000000e+01
6.600000000000000000e+02 2.300000000000000000e+01
6.610000000000000000e+02 2.300000000000000000e+01
8.390000000000000000e+02 2.300000000000000000e+01
8.400000000000000000e+02 2.300000000000000000e+01
8.410000000000000000e+02 2.300000000000000000e+01
8.420000000000000000e+02 2.300000000000000000e+01
8.430000000000000000e+02 2.300000000000000000e+01
8.440000000000000000e+02 2.300000000000000000e+01
1.000000000000000000e+01 2.400000000000000000e+01
1.100000000000000000e+01 2.400000000000000000e+01
1.200000000000000000e+01 2.400000000000000000e+01
1.260000000000000000e+02 2.400000000000000000e+01
1.270000000000000000e+02 2.400000000000000000e+01
1.280000000000000000e+02 2.400000000000000000e+01
1.290000000000000000e+02 2.400000000000000000e+01
1.300000000000000000e+02 2.400000000000000000e+01
2.980000000000000000e+02 2.400000000000000000e+01
2.990000000000000000e+02 2.400000000000000000e+01
3.000000000000000000e+02 2.400000000000000000e+01
3.010000000000000000e+02 2.400000000000000000e+01
3.020000000000000000e+02 2.400000000000000000e+01
3.030000000000000000e+02 2.400000000000000000e+01
4.730000000000000000e+02 2.400000000000000000e+01
4.740000000000000000e+02 2.400000000000000000e+01
4.750000000000000000e+02 2.400000000000000000e+01
4.760000000000000000e+02 2.400000000000000000e+01
4.770000000000000000e+02 2.400000000000000000e+01
6.560000000000000000e+02 2.400000000000000000e+01
6.570000000000000000e+02 2.400000000000000000e+01
6.580000000000000000e+02 2.400000000000000000e+01
6.590000000000000000e+02 2.400000000000000000e+01
6.600000000000000000e+02 2.400000000000000000e+01
6.610000000000000000e+02 2.400000000000000000e+01
8.390000000000000000e+02 2.400000000000000000e+01
8.400000000000000000e+02 2.400000000000000000e+01
8.410000000000000000e+02 2.400000000000000000e+01
8.420000000000000000e+02 2.400000000000000000e+01
8.430000000000000000e+02 2.400000000000000000e+01
8.440000000000000000e+02 2.400000000000000000e+01
1.000000000000000000e+01 2.500000000000000000e+01
1.100000000000000000e+01 2.500000000000000000e+01
1.200000000000000000e+01 2.500000000000000000e+01
1.260000000000000000e+02 2.500000000000000000e+01
1.270000000000000000e+02 2.500000000000000000e+01
1.280000000000000000e+02 2.500000000000000000e+01
1.290000000000000000e+02 2.500000000000000000e+01
1.300000000000000000e+02 2.500000000000000000e+01
2.980000000000000000e+02 2.500000000000000000e+01
2.990000000000000000e+02 2.500000000000000000e+01
3.000000000000000000e+02 2.500000000000000000e+01
3.010000000000000000e+02 2.500000000000000000e+01
3.020000000000000000e+02 2.500000000000000000e+01
3.030000000000000000e+02 2.500000000000000000e+01
4.730000000000000000e+02 2.500000000000000000e+01
4.740000000000000000e+02 2.500000000000000000e+01
4.750000000000000000e+02 2.500000000000000000e+01
4.760000000000000000e+02 2.500000000000000000e+01
4.770000000000000000e+02 2.500000000000000000e+01
6.560000000000000000e+02 2.500000000000000000e+01
6.570000000000000000e+02 2.500000000000000000e+01
6.580000000000000000e+02 2.500000000000000000e+01
6.590000000000000000e+02 2.500000000000000000e+01
6.600000000000000000e+02 2.500000000000000000e+01
6.610000000000000000e+02 2.500000000000000000e+01
8.390000000000000000e+02 2.500000000000000000e+01
8.400000000000000000e+02 2.500000000000000000e+01
8.410000000000000000e+02 2.500000000000000000e+01
8.420000000000000000e+02 2.500000000000000000e+01
8.430000000000000000e+02 2.500000000000000000e+01
8.440000000000000000e+02 2.500000000000000000e+01
1.000000000000000000e+01 2.600000000000000000e+01
1.100000000000000000e+01 2.600000000000000000e+01
1.200000000000000000e+01 2.600000000000000000e+01
1.260000000000000000e+02 2.600000000000000000e+01
1.270000000000000000e+02 2.600000000000000000e+01
1.280000000000000000e+02 2.600000000000000000e+01
1.290000000000000000e+02 2.600000000000000000e+01
1.300000000000000000e+02 2.600000000000000000e+01
2.980000000000000000e+02 2.600000000000000000e+01
2.990000000000000000e+02 2.600000000000000000e+01
3.000000000000000000e+02 2.600000000000000000e+01
3.010000000000000000e+02 2.600000000000000000e+01
3.020000000000000000e+02 2.600000000000000000e+01
4.730000000000000000e+02 2.600000000000000000e+01
4.740000000000000000e+02 2.600000000000000000e+01
4.750000000000000000e+02 2.600000000000000000e+01
4.760000000000000000e+02 2.600000000000000000e+01
4.770000000000000000e+02 2.600000000000000000e+01
6.560000000000000000e+02 2.600000000000000000e+01
6.570000000000000000e+02 2.600000000000000000e+01
6.580000000000000000e+02 2.600000000000000000e+01
6.590000000000000000e+02 2.600000000000000000e+01
6.600000000000000000e+02 2.600000000000000000e+01
6.610000000000000000e+02 2.600000000000000000e+01
8.390000000000000000e+02 2.600000000000000000e+01
8.400000000000000000e+02 2.600000000000000000e+01
8.410000000000000000e+02 2.600000000000000000e+01
8.420000000000000000e+02 2.600000000000000000e+01
8.430000000000000000e+02 2.600000000000000000e+01
8.440000000000000000e+02 2.600000000000000000e+01
1.000000000000000000e+01 2.700000000000000000e+01
1.100000000000000000e+01 2.700000000000000000e+01
1.200000000000000000e+01 2.700000000000000000e+01
1.260000000000000000e+02 2.700000000000000000e+01
1.270000000000000000e+02 2.700000000000000000e+01
1.280000000000000000e+02 2.700000000000000000e+01
1.290000000000000000e+02 2.700000000000000000e+01
2.980000000000000000e+02 2.700000000000000000e+01
2.990000000000000000e+02 2.700000000000000000e+01
3.000000000000000000e+02 2.700000000000000000e+01
3.010000000000000000e+02 2.700000000000000000e+01
3.020000000000000000e+02 2.700000000000000000e+01
4.730000000000000000e+02 2.700000000000000000e+01
4.740000000000000000e+02 2.700000000000000000e+01
4.750000000000000000e+02 2.700000000000000000e+01
4.760000000000000000e+02 2.700000000000000000e+01
4.770000000000000000e+02 2.700000000000000000e+01
6.560000000000000000e+02 2.700000000000000000e+01
6.570000000000000000e+02 2.700000000000000000e+01
6.580000000000000000e+02 2.700000000000000000e+01
6.590000000000000000e+02 2.700000000000000000e+01
6.600000000000000000e+02 2.700000000000000000e+01
8.390000000000000000e+02 2.700000000000000000e+01
8.400000000000000000e+02 2.700000000000000000e+01
8.410000000000000000e+02 2.700000000000000000e+01
8.420000000000000000e+02 2.700000000000000000e+01
8.430000000000000000e+02 2.700000000000000000e+01
8.440000000000000000e+02 2.700000000000000000e+01
1.000000000000000000e+01 2.800000000000000000e+01
1.100000000000000000e+01 2.800000000000000000e+01
1.200000000000000000e+01 2.800000000000000000e+01
1.260000000000000000e+02 2.800000000000000000e+01
1.270000000000000000e+02 2.800000000000000000e+01
1.280000000000000000e+02 2.800000000000000000e+01
1.290000000000000000e+02 2.800000000000000000e+01
2.980000000000000000e+02 2.800000000000000000e+01
2.990000000000000000e+02 2.800000000000000000e+01
3.000000000000000000e+02 2.800000000000000000e+01
3.010000000000000000e+02 2.800000000000000000e+01
3.020000000000000000e+02 2.800000000000000000e+01
4.730000000000000000e+02 2.800000000000000000e+01
4.740000000000000000e+02 2.800000000000000000e+01
4.750000000000000000e+02 2.800000000000000000e+01
4.760000000000000000e+02 2.800000000000000000e+01
4.770000000000000000e+02 2.800000000000000000e+01
6.560000000000000000e+02 2.800000000000000000e+01
6.570000000000000000e+02 2.800000000000000000e+01
6.580000000000000000e+02 2.800000000000000000e+01
6.590000000000000000e+02 2.800000000000000000e+01
6.600000000000000000e+02 2.800000000000000000e+01
8.400000000000000000e+02 2.800000000000000000e+01
8.410000000000000000e+02 2.800000000000000000e+01
8.420000000000000000e+02 2.800000000000000000e+01
8.430000000000000000e+02 2.800000000000000000e+01
1.000000000000000000e+01 2.900000000000000000e+01
1.100000000000000000e+01 2.900000000000000000e+01
1.200000000000000000e+01 2.900000000000000000e+01
1.260000000000000000e+02 2.900000000000000000e+01
1.270000000000000000e+02 2.900000000000000000e+01
1.280000000000000000e+02 2.900000000000000000e+01
1.290000000000000000e+02 2.900000000000000000e+01
2.980000000000000000e+02 2.900000000000000000e+01
2.990000000000000000e+02 2.900000000000000000e+01
3.000000000000000000e+02 2.900000000000000000e+01
3.010000000000000000e+02 2.900000000000000000e+01
3.020000000000000000e+02 2.900000000000000000e+01
4.730000000000000000e+02 2.900000000000000000e+01
4.740000000000000000e+02 2.900000000000000000e+01
4.750000000000000000e+02 2.900000000000000000e+01
4.760000000000000000e+02 2.900000000000000000e+01
6.560000000000000000e+02 2.900000000000000000e+01
6.570000000000000000e+02 2.900000000000000000e+01
6.580000000000000000e+02 2.900000000000000000e+01
6.590000000000000000e+02 2.900000000000000000e+01
6.600000000000000000e+02 2.900000000000000000e+01
8.400000000000000000e+02 2.900000000000000000e+01
8.410000000000000000e+02 2.900000000000000000e+01
8.420000000000000000e+02 2.900000000000000000e+01
8.430000000000000000e+02 2.900000000000000000e+01
1.000000000000000000e+01 3.000000000000000000e+01
1.100000000000000000e+01 3.000000000000000000e+01
1.200000000000000000e+01 3.000000000000000000e+01
1.270000000000000000e+02 3.000000000000000000e+01
1.280000000000000000e+02 3.000000000000000000e+01
2.980000000000000000e+02 3.000000000000000000e+01
2.990000000000000000e+02 3.000000000000000000e+01
3.000000000000000000e+02 3.000000000000000000e+01
3.010000000000000000e+02 3.000000000000000000e+01
3.020000000000000000e+02 3.000000000000000000e+01
4.730000000000000000e+02 3.000000000000000000e+01
4.740000000000000000e+02 3.000000000000000000e+01
4.750000000000000000e+02 3.000000000000000000e+01
4.760000000000000000e+02 3.000000000000000000e+01
6.560000000000000000e+02 3.000000000000000000e+01
6.570000000000000000e+02 3.000000000000000000e+01
6.580000000000000000e+02 3.000000000000000000e+01
6.590000000000000000e+02 3.000000000000000000e+01
6.600000000000000000e+02 3.000000000000000000e+01
8.400000000000000000e+02 3.000000000000000000e+01
8.410000000000000000e+02 3.000000000000000000e+01
8.420000000000000000e+02 3.000000000000000000e+01
8.430000000000000000e+02 3.000000000000000000e+01
1.000000000000000000e+01 3.100000000000000000e+01
1.100000000000000000e+01 3.100000000000000000e+01
1.200000000000000000e+01 3.100000000000000000e+01
2.980000000000000000e+02 3.100000000000000000e+01
2.990000000000000000e+02 3.100000000000000000e+01
3.000000000000000000e+02 3.100000000000000000e+01
3.010000000000000000e+02 3.100000000000000000e+01
3.020000000000000000e+02 3.100000000000000000e+01
4.730000000000000000e+02 3.100000000000000000e+01
4.740000000000000000e+02 3.100000000000000000e+01
4.750000000000000000e+02 3.100000000000000000e+01
4.760000000000000000e+02 3.100000000000000000e+01
6.570000000000000000e+02 3.100000000000000000e+01
6.580000000000000000e+02 3.100000000000000000e+01
6.590000000000000000e+02 3.100000000000000000e+01
6.600000000000000000e+02 3.100000000000000000e+01
8.400000000000000000e+02 3.100000000000000000e+01
8.410000000000000000e+02 3.100000000000000000e+01
8.420000000000000000e+02 3.100000000000000000e+01
8.430000000000000000e+02 3.100000000000000000e+01
1.000000000000000000e+01 3.200000000000000000e+01
1.100000000000000000e+01 3.200000000000000000e+01
1.200000000000000000e+01 3.200000000000000000e+01
2.980000000000000000e+02 3.200000000000000000e+01
2.990000000000000000e+02 3.200000000000000000e+01
3.000000000000000000e+02 3.200000000000000000e+01
3.010000000000000000e+02 3.200000000000000000e+01
3.020000000000000000e+02 3.200000000000000000e+01
4.730000000000000000e+02 3.200000000000000000e+01
4.740000000000000000e+02 3.200000000000000000e+01
4.750000000000000000e+02 3.200000000000000000e+01
4.760000000000000000e+02 3.200000000000000000e+01
6.570000000000000000e+02 3.200000000000000000e+01
6.580000000000000000e+02 3.200000000000000000e+01
6.590000000000000000e+02 3.200000000000000000e+01
6.600000000000000000e+02 3.200000000000000000e+01
8.400000000000000000e+02 3.200000000000000000e+01
8.410000000000000000e+02 3.200000000000000000e+01
8.420000000000000000e+02 3.200000000000000000e+01
8.430000000000000000e+02 3.200000000000000000e+01
1.000000000000000000e+01 3.300000000000000000e+01
1.100000000000000000e+01 3.300000000000000000e+01
1.200000000000000000e+01 3.300000000000000000e+01
2.980000000000000000e+02 3.300000000000000000e+01
2.990000000000000000e+02 3.300000000000000000e+01
3.000000000000000000e+02 3.300000000000000000e+01
3.010000000000000000e+02 3.300000000000000000e+01
3.020000000000000000e+02 3.300000000000000000e+01
6.580000000000000000e+02 3.300000000000000000e+01
6.590000000000000000e+02 3.300000000000000000e+01
8.400000000000000000e+02 3.300000000000000000e+01
8.410000000000000000e+02 3.300000000000000000e+01
8.420000000000000000e+02 3.300000000000000000e+01
8.430000000000000000e+02 3.300000000000000000e+01
1.000000000000000000e+01 3.400000000000000000e+01
1.100000000000000000e+01 3.400000000000000000e+01
1.200000000000000000e+01 3.400000000000000000e+01
2.980000000000000000e+02 3.400000000000000000e+01
2.990000000000000000e+02 3.400000000000000000e+01
3.000000000000000000e+02 3.400000000000000000e+01
3.010000000000000000e+02 3.400000000000000000e+01
8.400000000000000000e+02 3.400000000000000000e+01
8.410000000000000000e+02 3.400000000000000000e+01
8.420000000000000000e+02 3.400000000000000000e+01
8.430000000000000000e+02 3.400000000000000000e+01
1.000000000000000000e+01 3.500000000000000000e+01
1.100000000000000000e+01 3.500000000000000000e+01
1.200000000000000000e+01 3.500000000000000000e+01
2.980000000000000000e+02 3.500000000000000000e+01
2.990000000000000000e+02 3.500000000000000000e+01
3.000000000000000000e+02 3.500000000000000000e+01
3.010000000000000000e+02 3.500000000000000000e+01
8.400000000000000000e+02 3.500000000000000000e+01
8.410000000000000000e+02 3.500000000000000000e+01
8.420000000000000000e+02 3.500000000000000000e+01
1.000000000000000000e+01 3.600000000000000000e+01
1.100000000000000000e+01 3.600000000000000000e+01
1.200000000000000000e+01 3.600000000000000000e+01
2.990000000000000000e+02 3.600000000000000000e+01
3.000000000000000000e+02 3.600000000000000000e+01
3.010000000000000000e+02 3.600000000000000000e+01
1.000000000000000000e+01 3.700000000000000000e+01
1.100000000000000000e+01 3.700000000000000000e+01
1.200000000000000000e+01 3.700000000000000000e+01
1.000000000000000000e+01 3.800000000000000000e+01
1.100000000000000000e+01 3.800000000000000000e+01
1.200000000000000000e+01 3.800000000000000000e+01
1.000000000000000000e+01 3.900000000000000000e+01
1.100000000000000000e+01 3.900000000000000000e+01
1.200000000000000000e+01 3.900000000000000000e+01
1.000000000000000000e+01 4.000000000000000000e+01
1.100000000000000000e+01 4.000000000000000000e+01
1.200000000000000000e+01 4.000000000000000000e+01
1.000000000000000000e+01 4.100000000000000000e+01
1.100000000000000000e+01 4.100000000000000000e+01
1.200000000000000000e+01 4.100000000000000000e+01
1.000000000000000000e+01 4.200000000000000000e+01
1.100000000000000000e+01 4.200000000000000000e+01
1.200000000000000000e+01 4.200000000000000000e+01
1.000000000000000000e+01 4.300000000000000000e+01
1.100000000000000000e+01 4.300000000000000000e+01
1.200000000000000000e+01 4.300000000000000000e+01
1.000000000000000000e+01 4.400000000000000000e+01
1.100000000000000000e+01 4.400000000000000000e+01
1.200000000000000000e+01 4.400000000000000000e+01
1.000000000000000000e+01 4.500000000000000000e+01
1.100000000000000000e+01 4.500000000000000000e+01
1.200000000000000000e+01 4.500000000000000000e+01
1.000000000000000000e+01 4.600000000000000000e+01
1.100000000000000000e+01 4.600000000000000000e+01
1.200000000000000000e+01 4.600000000000000000e+01
1.000000000000000000e+01 4.700000000000000000e+01
1.100000000000000000e+01 4.700000000000000000e+01
1.200000000000000000e+01 4.700000000000000000e+01
1.000000000000000000e+01 4.800000000000000000e+01
1.100000000000000000e+01 4.800000000000000000e+01
1.200000000000000000e+01 4.800000000000000000e+01
1.000000000000000000e+01 4.900000000000000000e+01
1.100000000000000000e+01 4.900000000000000000e+01
1.200000000000000000e+01 4.900000000000000000e+01
1.000000000000000000e+01 5.000000000000000000e+01
1.100000000000000000e+01 5.000000000000000000e+01
1.200000000000000000e+01 5.000000000000000000e+01
1.000000000000000000e+01 5.100000000000000000e+01
1.100000000000000000e+01 5.100000000000000000e+01
1.200000000000000000e+01 5.100000000000000000e+01
1.000000000000000000e+01 5.200000000000000000e+01
1.100000000000000000e+01 5.200000000000000000e+01
1.200000000000000000e+01 5.200000000000000000e+01
1.000000000000000000e+01 5.300000000000000000e+01
1.100000000000000000e+01 5.300000000000000000e+01
1.200000000000000000e+01 5.300000000000000000e+01
1.000000000000000000e+01 5.400000000000000000e+01
1.100000000000000000e+01 5.400000000000000000e+01
1.200000000000000000e+01 5.400000000000000000e+01
1.000000000000000000e+01 5.500000000000000000e+01
1.100000000000000000e+01 5.500000000000000000e+01
1.200000000000000000e+01 5.500000000000000000e+01
1.000000000000000000e+01 5.600000000000000000e+01
1.100000000000000000e+01 5.600000000000000000e+01
1.200000000000000000e+01 5.600000000000000000e+01
1.000000000000000000e+01 5.700000000000000000e+01
1.100000000000000000e+01 5.700000000000000000e+01
1.200000000000000000e+01 5.700000000000000000e+01
1.000000000000000000e+01 5.800000000000000000e+01
1.100000000000000000e+01 5.800000000000000000e+01
1.200000000000000000e+01 5.800000000000000000e+01
1.000000000000000000e+01 5.900000000000000000e+01
1.100000000000000000e+01 5.900000000000000000e+01
1.200000000000000000e+01 5.900000000000000000e+01
1.000000000000000000e+01 6.000000000000000000e+01
1.100000000000000000e+01 6.000000000000000000e+01
1.200000000000000000e+01 6.000000000000000000e+01
1.000000000000000000e+01 6.100000000000000000e+01
1.100000000000000000e+01 6.100000000000000000e+01
1.200000000000000000e+01 6.100000000000000000e+01
1.000000000000000000e+01 6.200000000000000000e+01
1.100000000000000000e+01 6.200000000000000000e+01
1.200000000000000000e+01 6.200000000000000000e+01
1.000000000000000000e+01 6.300000000000000000e+01
1.100000000000000000e+01 6.300000000000000000e+01
1.200000000000000000e+01 6.300000000000000000e+01
1.000000000000000000e+01 6.400000000000000000e+01
1.100000000000000000e+01 6.400000000000000000e+01
1.200000000000000000e+01 6.400000000000000000e+01
1.000000000000000000e+01 6.500000000000000000e+01
1.100000000000000000e+01 6.500000000000000000e+01
1.200000000000000000e+01 6.500000000000000000e+01
1.000000000000000000e+01 6.600000000000000000e+01
1.100000000000000000e+01 6.600000000000000000e+01
1.200000000000000000e+01 6.600000000000000000e+01
1.000000000000000000e+01 6.700000000000000000e+01
1.100000000000000000e+01 6.700000000000000000e+01
1.200000000000000000e+01 6.700000000000000000e+01
1.000000000000000000e+01 6.800000000000000000e+01
1.100000000000000000e+01 6.800000000000000000e+01
1.200000000000000000e+01 6.800000000000000000e+01
1.000000000000000000e+01 6.900000000000000000e+01
1.100000000000000000e+01 6.900000000000000000e+01
1.200000000000000000e+01 6.900000000000000000e+01
1.000000000000000000e+01 7.000000000000000000e+01
1.100000000000000000e+01 7.000000000000000000e+01
1.200000000000000000e+01 7.000000000000000000e+01
1.000000000000000000e+01 7.100000000000000000e+01
1.100000000000000000e+01 7.100000000000000000e+01
1.200000000000000000e+01 7.100000000000000000e+01
1.000000000000000000e+01 7.200000000000000000e+01
1.100000000000000000e+01 7.200000000000000000e+01
1.200000000000000000e+01 7.200000000000000000e+01
1.000000000000000000e+01 7.300000000000000000e+01
1.100000000000000000e+01 7.300000000000000000e+01
1.200000000000000000e+01 7.300000000000000000e+01
1.000000000000000000e+01 7.400000000000000000e+01
1.100000000000000000e+01 7.400000000000000000e+01
1.200000000000000000e+01 7.400000000000000000e+01
1.000000000000000000e+01 7.500000000000000000e+01
1.100000000000000000e+01 7.500000000000000000e+01
1.200000000000000000e+01 7.500000000000000000e+01
1.000000000000000000e+01 7.600000000000000000e+01
1.100000000000000000e+01 7.600000000000000000e+01
1.200000000000000000e+01 7.600000000000000000e+01
1.000000000000000000e+01 7.700000000000000000e+01
1.100000000000000000e+01 7.700000000000000000e+01
1.200000000000000000e+01 7.700000000000000000e+01
1.000000000000000000e+01 7.800000000000000000e+01
1.100000000000000000e+01 7.800000000000000000e+01
1.200000000000000000e+01 7.800000000000000000e+01
1.000000000000000000e+01 7.900000000000000000e+01
1.100000000000000000e+01 7.900000000000000000e+01
1.200000000000000000e+01 7.900000000000000000e+01
1.000000000000000000e+01 8.000000000000000000e+01
1.100000000000000000e+01 8.000000000000000000e+01
1.200000000000000000e+01 8.000000000000000000e+01
1.000000000000000000e+01 8.100000000000000000e+01
1.100000000000000000e+01 8.100000000000000000e+01
1.200000000000000000e+01 8.100000000000000000e+01
1.000000000000000000e+01 8.200000000000000000e+01
1.100000000000000000e+01 8.200000000000000000e+01
1.200000000000000000e+01 8.200000000000000000e+01
1.000000000000000000e+01 8.300000000000000000e+01
1.100000000000000000e+01 8.300000000000000000e+01
1.200000000000000000e+01 8.300000000000000000e+01
1.000000000000000000e+01 8.400000000000000000e+01
1.100000000000000000e+01 8.400000000000000000e+01
1.200000000000000000e+01 8.400000000000000000e+01
1.000000000000000000e+01 8.500000000000000000e+01
1.100000000000000000e+01 8.500000000000000000e+01
1.200000000000000000e+01 8.500000000000000000e+01
1.000000000000000000e+01 8.600000000000000000e+01
1.100000000000000000e+01 8.600000000000000000e+01
1.200000000000000000e+01 8.600000000000000000e+01
1.000000000000000000e+01 8.700000000000000000e+01
1.100000000000000000e+01 8.700000000000000000e+01
1.200000000000000000e+01 8.700000000000000000e+01
1.000000000000000000e+01 8.800000000000000000e+01
1.100000000000000000e+01 8.800000000000000000e+01
1.200000000000000000e+01 8.800000000000000000e+01
1.000000000000000000e+01 8.900000000000000000e+01
1.100000000000000000e+01 8.900000000000000000e+01
1.200000000000000000e+01 8.900000000000000000e+01
1.000000000000000000e+01 9.000000000000000000e+01
1.100000000000000000e+01 9.000000000000000000e+01
1.200000000000000000e+01 9.000000000000000000e+01
1.000000000000000000e+01 9.100000000000000000e+01
1.100000000000000000e+01 9.100000000000000000e+01
1.200000000000000000e+01 9.100000000000000000e+01
1.000000000000000000e+01 9.200000000000000000e+01
1.100000000000000000e+01 9.200000000000000000e+01
1.200000000000000000e+01 9.200000000000000000e+01
1.000000000000000000e+01 9.300000000000000000e+01
1.100000000000000000e+01 9.300000000000000000e+01
1.200000000000000000e+01 9.300000000000000000e+01
6.950000000000000000e+02 9.300000000000000000e+01
6.960000000000000000e+02 9.300000000000000000e+01
6.970000000000000000e+02 9.300000000000000000e+01
1.000000000000000000e+01 9.400000000000000000e+01
1.100000000000000000e+01 9.400000000000000000e+01
1.200000000000000000e+01 9.400000000000000000e+01
6.950000000000000000e+02 9.400000000000000000e+01
6.960000000000000000e+02 9.400000000000000000e+01
6.970000000000000000e+02 9.400000000000000000e+01
6.980000000000000000e+02 9.400000000000000000e+01
1.000000000000000000e+01 9.500000000000000000e+01
1.100000000000000000e+01 9.500000000000000000e+01
1.200000000000000000e+01 9.500000000000000000e+01
6.940000000000000000e+02 9.500000000000000000e+01
6.950000000000000000e+02 9.500000000000000000e+01
6.960000000000000000e+02 9.500000000000000000e+01
6.970000000000000000e+02 9.500000000000000000e+01
6.980000000000000000e+02 9.500000000000000000e+01
1.000000000000000000e+01 9.600000000000000000e+01
1.100000000000000000e+01 9.600000000000000000e+01
1.200000000000000000e+01 9.600000000000000000e+01
6.550000000000000000e+02 9.600000000000000000e+01
6.940000000000000000e+02 9.600000000000000000e+01
6.950000000000000000e+02 9.600000000000000000e+01
6.960000000000000000e+02 9.600000000000000000e+01
6.970000000000000000e+02 9.600000000000000000e+01
6.980000000000000000e+02 9.600000000000000000e+01
1.000000000000000000e+01 9.700000000000000000e+01
1.100000000000000000e+01 9.700000000000000000e+01
1.200000000000000000e+01 9.700000000000000000e+01
6.540000000000000000e+02 9.700000000000000000e+01
6.550000000000000000e+02 9.700000000000000000e+01
6.560000000000000000e+02 9.700000000000000000e+01
6.940000000000000000e+02 9.700000000000000000e+01
6.950000000000000000e+02 9.700000000000000000e+01
6.960000000000000000e+02 9.700000000000000000e+01
6.970000000000000000e+02 9.700000000000000000e+01
6.980000000000000000e+02 9.700000000000000000e+01
1.000000000000000000e+01 9.800000000000000000e+01
1.100000000000000000e+01 9.800000000000000000e+01
1.200000000000000000e+01 9.800000000000000000e+01
6.540000000000000000e+02 9.800000000000000000e+01
6.550000000000000000e+02 9.800000000000000000e+01
6.560000000000000000e+02 9.800000000000000000e+01
6.930000000000000000e+02 9.800000000000000000e+01
6.940000000000000000e+02 9.800000000000000000e+01
6.950000000000000000e+02 9.800000000000000000e+01
6.960000000000000000e+02 9.800000000000000000e+01
6.970000000000000000e+02 9.800000000000000000e+01
6.980000000000000000e+02 9.800000000000000000e+01
1.000000000000000000e+01 9.900000000000000000e+01
1.100000000000000000e+01 9.900000000000000000e+01
1.200000000000000000e+01 9.900000000000000000e+01
6.530000000000000000e+02 9.900000000000000000e+01
6.540000000000000000e+02 9.900000000000000000e+01
6.550000000000000000e+02 9.900000000000000000e+01
6.560000000000000000e+02 9.900000000000000000e+01
6.570000000000000000e+02 9.900000000000000000e+01
6.930000000000000000e+02 9.900000000000000000e+01
6.940000000000000000e+02 9.900000000000000000e+01
6.950000000000000000e+02 9.900000000000000000e+01
6.960000000000000000e+02 9.900000000000000000e+01
6.970000000000000000e+02 9.900000000000000000e+01
6.980000000000000000e+02 9.900000000000000000e+01
1.000000000000000000e+01 1.000000000000000000e+02
1.100000000000000000e+01 1.000000000000000000e+02
1.200000000000000000e+01 1.000000000000000000e+02
6.530000000000000000e+02 1.000000000000000000e+02
6.540000000000000000e+02 1.000000000000000000e+02
6.550000000000000000e+02 1.000000000000000000e+02
6.560000000000000000e+02 1.000000000000000000e+02
6.570000000000000000e+02 1.000000000000000000e+02
6.930000000000000000e+02 1.000000000000000000e+02
6.940000000000000000e+02 1.000000000000000000e+02
6.950000000000000000e+02 1.000000000000000000e+02
6.960000000000000000e+02 1.000000000000000000e+02
6.970000000000000000e+02 1.000000000000000000e+02
6.980000000000000000e+02 1.000000000000000000e+02
6.990000000000000000e+02 1.000000000000000000e+02
1.000000000000000000e+01 1.010000000000000000e+02
1.100000000000000000e+01 1.010000000000000000e+02
1.200000000000000000e+01 1.010000000000000000e+02
4.710000000000000000e+02 1.010000000000000000e+02
4.720000000000000000e+02 1.010000000000000000e+02
6.530000000000000000e+02 1.010000000000000000e+02
6.540000000000000000e+02 1.010000000000000000e+02
6.550000000000000000e+02 1.010000000000000000e+02
6.560000000000000000e+02 1.010000000000000000e+02
6.570000000000000000e+02 1.010000000000000000e+02
6.930000000000000000e+02 1.010000000000000000e+02
6.940000000000000000e+02 1.010000000000000000e+02
6.950000000000000000e+02 1.010000000000000000e+02
6.960000000000000000e+02 1.010000000000000000e+02
6.970000000000000000e+02 1.010000000000000000e+02
6.980000000000000000e+02 1.010000000000000000e+02
6.990000000000000000e+02 1.010000000000000000e+02
1.000000000000000000e+01 1.020000000000000000e+02
1.100000000000000000e+01 1.020000000000000000e+02
1.200000000000000000e+01 1.020000000000000000e+02
4.700000000000000000e+02 1.020000000000000000e+02
4.710000000000000000e+02 1.020000000000000000e+02
4.720000000000000000e+02 1.020000000000000000e+02
4.730000000000000000e+02 1.020000000000000000e+02
6.530000000000000000e+02 1.020000000000000000e+02
6.540000000000000000e+02 1.020000000000000000e+02
6.550000000000000000e+02 1.020000000000000000e+02
6.560000000000000000e+02 1.020000000000000000e+02
6.570000000000000000e+02 1.020000000000000000e+02
6.930000000000000000e+02 1.020000000000000000e+02
6.940000000000000000e+02 1.020000000000000000e+02
6.950000000000000000e+02 1.020000000000000000e+02
6.960000000000000000e+02 1.020000000000000000e+02
6.970000000000000000e+02 1.020000000000000000e+02
6.980000000000000000e+02 1.020000000000000000e+02
6.990000000000000000e+02 1.020000000000000000e+02
1.000000000000000000e+01 1.030000000000000000e+02
1.100000000000000000e+01 1.030000000000000000e+02
1.200000000000000000e+01 1.030000000000000000e+02
4.700000000000000000e+02 1.030000000000000000e+02
4.710000000000000000e+02 1.030000000000000000e+02
4.720000000000000000e+02 1.030000000000000000e+02
4.730000000000000000e+02 1.030000000000000000e+02
6.530000000000000000e+02 1.030000000000000000e+02
6.540000000000000000e+02 1.030000000000000000e+02
6.550000000000000000e+02 1.030000000000000000e+02
6.560000000000000000e+02 1.030000000000000000e+02
6.570000000000000000e+02 1.030000000000000000e+02
6.930000000000000000e+02 1.030000000000000000e+02
6.940000000000000000e+02 1.030000000000000000e+02
6.950000000000000000e+02 1.030000000000000000e+02
6.970000000000000000e+02 1.030000000000000000e+02
6.980000000000000000e+02 1.030000000000000000e+02
6.990000000000000000e+02 1.030000000000000000e+02
1.000000000000000000e+01 1.040000000000000000e+02
1.100000000000000000e+01 1.040000000000000000e+02
1.200000000000000000e+01 1.040000000000000000e+02
1.240000000000000000e+02 1.040000000000000000e+02
1.250000000000000000e+02 1.040000000000000000e+02
2.960000000000000000e+02 1.040000000000000000e+02
2.970000000000000000e+02 1.040000000000000000e+02
2.980000000000000000e+02 1.040000000000000000e+02
4.700000000000000000e+02 1.040000000000000000e+02
4.710000000000000000e+02 1.040000000000000000e+02
4.720000000000000000e+02 1.040000000000000000e+02
4.730000000000000000e+02 1.040000000000000000e+02
6.530000000000000000e+02 1.040000000000000000e+02
6.540000000000000000e+02 1.040000000000000000e+02
6.550000000000000000e+02 1.040000000000000000e+02
6.560000000000000000e+02 1.040000000000000000e+02
6.570000000000000000e+02 1.040000000000000000e+02
6.930000000000000000e+02 1.040000000000000000e+02
6.940000000000000000e+02 1.040000000000000000e+02
6.950000000000000000e+02 1.040000000000000000e+02
6.970000000000000000e+02 1.040000000000000000e+02
6.980000000000000000e+02 1.040000000000000000e+02
6.990000000000000000e+02 1.040000000000000000e+02
1.000000000000000000e+01 1.050000000000000000e+02
1.100000000000000000e+01 1.050000000000000000e+02
1.200000000000000000e+01 1.050000000000000000e+02
1.230000000000000000e+02 1.050000000000000000e+02
1.240000000000000000e+02 1.050000000000000000e+02
1.250000000000000000e+02 1.050000000000000000e+02
1.260000000000000000e+02 1.050000000000000000e+02
2.950000000000000000e+02 1.050000000000000000e+02
2.960000000000000000e+02 1.050000000000000000e+02
2.970000000000000000e+02 1.050000000000000000e+02
2.980000000000000000e+02 1.050000000000000000e+02
4.700000000000000000e+02 1.050000000000000000e+02
4.710000000000000000e+02 1.050000000000000000e+02
4.720000000000000000e+02 1.050000000000000000e+02
4.730000000000000000e+02 1.050000000000000000e+02
6.530000000000000000e+02 1.050000000000000000e+02
6.540000000000000000e+02 1.050000000000000000e+02
6.550000000000000000e+02 1.050000000000000000e+02
6.560000000000000000e+02 1.050000000000000000e+02
6.570000000000000000e+02 1.050000000000000000e+02
6.930000000000000000e+02 1.050000000000000000e+02
6.940000000000000000e+02 1.050000000000000000e+02
6.950000000000000000e+02 1.050000000000000000e+02
6.970000000000000000e+02 1.050000000000000000e+02
6.980000000000000000e+02 1.050000000000000000e+02
6.990000000000000000e+02 1.050000000000000000e+02
1.000000000000000000e+01 1.060000000000000000e+02
1.100000000000000000e+01 1.060000000000000000e+02
1.200000000000000000e+01 1.060000000000000000e+02
1.230000000000000000e+02 1.060000000000000000e+02
1.240000000000000000e+02 1.060000000000000000e+02
1.250000000000000000e+02 1.060000000000000000e+02
1.260000000000000000e+02 1.060000000000000000e+02
2.950000000000000000e+02 1.060000000000000000e+02
2.960000000000000000e+02 1.060000000000000000e+02
2.970000000000000000e+02 1.060000000000000000e+02
2.980000000000000000e+02 1.060000000000000000e+02
4.700000000000000000e+02 1.060000000000000000e+02
4.710000000000000000e+02 1.060000000000000000e+02
4.720000000000000000e+02 1.060000000000000000e+02
4.730000000000000000e+02 1.060000000000000000e+02
6.520000000000000000e+02 1.060000000000000000e+02
6.530000000000000000e+02 1.060000000000000000e+02
6.540000000000000000e+02 1.060000000000000000e+02
6.550000000000000000e+02 1.060000000000000000e+02
6.560000000000000000e+02 1.060000000000000000e+02
6.570000000000000000e+02 1.060000000000000000e+02
6.930000000000000000e+02 1.060000000000000000e+02
6.940000000000000000e+02 1.060000000000000000e+02
6.950000000000000000e+02 1.060000000000000000e+02
6.970000000000000000e+02 1.060000000000000000e+02
6.980000000000000000e+02 1.060000000000000000e+02
6.990000000000000000e+02 1.060000000000000000e+02
1.000000000000000000e+01 1.070000000000000000e+02
1.100000000000000000e+01 1.070000000000000000e+02
1.200000000000000000e+01 1.070000000000000000e+02
1.230000000000000000e+02 1.070000000000000000e+02
1.240000000000000000e+02 1.070000000000000000e+02
1.250000000000000000e+02 1.070000000000000000e+02
1.260000000000000000e+02 1.070000000000000000e+02
2.950000000000000000e+02 1.070000000000000000e+02
2.960000000000000000e+02 1.070000000000000000e+02
2.970000000000000000e+02 1.070000000000000000e+02
2.980000000000000000e+02 1.070000000000000000e+02
4.700000000000000000e+02 1.070000000000000000e+02
4.710000000000000000e+02 1.070000000000000000e+02
4.720000000000000000e+02 1.070000000000000000e+02
4.730000000000000000e+02 1.070000000000000000e+02
6.520000000000000000e+02 1.070000000000000000e+02
6.530000000000000000e+02 1.070000000000000000e+02
6.540000000000000000e+02 1.070000000000000000e+02
6.550000000000000000e+02 1.070000000000000000e+02
6.560000000000000000e+02 1.070000000000000000e+02
6.570000000000000000e+02 1.070000000000000000e+02
6.930000000000000000e+02 1.070000000000000000e+02
6.940000000000000000e+02 1.070000000000000000e+02
6.950000000000000000e+02 1.070000000000000000e+02
6.970000000000000000e+02 1.070000000000000000e+02
6.980000000000000000e+02 1.070000000000000000e+02
6.990000000000000000e+02 1.070000000000000000e+02
7.000000000000000000e+02 1.070000000000000000e+02
1.000000000000000000e+01 1.080000000000000000e+02
1.100000000000000000e+01 1.080000000000000000e+02
1.200000000000000000e+01 1.080000000000000000e+02
1.230000000000000000e+02 1.080000000000000000e+02
1.240000000000000000e+02 1.080000000000000000e+02
1.250000000000000000e+02 1.080000000000000000e+02
1.260000000000000000e+02 1.080000000000000000e+02
2.950000000000000000e+02 1.080000000000000000e+02
2.960000000000000000e+02 1.080000000000000000e+02
2.970000000000000000e+02 1.080000000000000000e+02
2.980000000000000000e+02 1.080000000000000000e+02
4.690000000000000000e+02 1.080000000000000000e+02
4.700000000000000000e+02 1.080000000000000000e+02
4.710000000000000000e+02 1.080000000000000000e+02
4.720000000000000000e+02 1.080000000000000000e+02
4.730000000000000000e+02 1.080000000000000000e+02
6.520000000000000000e+02 1.080000000000000000e+02
6.530000000000000000e+02 1.080000000000000000e+02
6.540000000000000000e+02 1.080000000000000000e+02
6.550000000000000000e+02 1.080000000000000000e+02
6.560000000000000000e+02 1.080000000000000000e+02
6.570000000000000000e+02 1.080000000000000000e+02
6.930000000000000000e+02 1.080000000000000000e+02
6.940000000000000000e+02 1.080000000000000000e+02
6.950000000000000000e+02 1.080000000000000000e+02
6.970000000000000000e+02 1.080000000000000000e+02
6.980000000000000000e+02 1.080000000000000000e+02
6.990000000000000000e+02 1.080000000000000000e+02
7.000000000000000000e+02 1.080000000000000000e+02
1.000000000000000000e+01 1.090000000000000000e+02
1.100000000000000000e+01 1.090000000000000000e+02
1.200000000000000000e+01 1.090000000000000000e+02
1.220000000000000000e+02 1.090000000000000000e+02
1.230000000000000000e+02 1.090000000000000000e+02
1.240000000000000000e+02 1.090000000000000000e+02
1.250000000000000000e+02 1.090000000000000000e+02
1.260000000000000000e+02 1.090000000000000000e+02
2.950000000000000000e+02 1.090000000000000000e+02
2.960000000000000000e+02 1.090000000000000000e+02
2.970000000000000000e+02 1.090000000000000000e+02
2.980000000000000000e+02 1.090000000000000000e+02
4.690000000000000000e+02 1.090000000000000000e+02
4.700000000000000000e+02 1.090000000000000000e+02
4.710000000000000000e+02 1.090000000000000000e+02
4.720000000000000000e+02 1.090000000000000000e+02
4.730000000000000000e+02 1.090000000000000000e+02
6.520000000000000000e+02 1.090000000000000000e+02
6.530000000000000000e+02 1.090000000000000000e+02
6.540000000000000000e+02 1.090000000000000000e+02
6.550000000000000000e+02 1.090000000000000000e+02
6.560000000000000000e+02 1.090000000000000000e+02
6.570000000000000000e+02 1.090000000000000000e+02
6.930000000000000000e+02 1.090000000000000000e+02
6.940000000000000000e+02 1.090000000000000000e+02
6.950000000000000000e+02 1.090000000000000000e+02
6.970000000000000000e+02 1.090000000000000000e+02
6.980000000000000000e+02 1.090000000000000000e+02
6.990000000000000000e+02 1.090000000000000000e+02
7.000000000000000000e+02 1.090000000000000000e+02
1.000000000000000000e+01 1.100000000000000000e+02
1.100000000000000000e+01 1.100000000000000000e+02
1.200000000000000000e+01 1.100000000000000000e+02
1.220000000000000000e+02 1.100000000000000000e+02
1.230000000000000000e+02 1.100000000000000000e+02
1.240000000000000000e+02 1.100000000000000000e+02
1.250000000000000000e+02 1.100000000000000000e+02
1.260000000000000000e+02 1.100000000000000000e+02
2.950000000000000000e+02 1.100000000000000000e+02
2.960000000000000000e+02 1.100000000000000000e+02
2.970000000000000000e+02 1.100000000000000000e+02
2.980000000000000000e+02 1.100000000000000000e+02
2.990000000000000000e+02 1.100000000000000000e+02
4.690000000000000000e+02 1.100000000000000000e+02
4.700000000000000000e+02 1.100000000000000000e+02
4.710000000000000000e+02 1.100000000000000000e+02
4.720000000000000000e+02 1.100000000000000000e+02
4.730000000000000000e+02 1.100000000000000000e+02
6.520000000000000000e+02 1.100000000000000000e+02
6.530000000000000000e+02 1.100000000000000000e+02
6.540000000000000000e+02 1.100000000000000000e+02
6.550000000000000000e+02 1.100000000000000000e+02
6.560000000000000000e+02 1.100000000000000000e+02
6.570000000000000000e+02 1.100000000000000000e+02
6.920000000000000000e+02 1.100000000000000000e+02
6.930000000000000000e+02 1.100000000000000000e+02
6.940000000000000000e+02 1.100000000000000000e+02
6.950000000000000000e+02 1.100000000000000000e+02
6.980000000000000000e+02 1.100000000000000000e+02
6.990000000000000000e+02 1.100000000000000000e+02
7.000000000000000000e+02 1.100000000000000000e+02
8.370000000000000000e+02 1.100000000000000000e+02
8.380000000000000000e+02 1.100000000000000000e+02
8.390000000000000000e+02 1.100000000000000000e+02
1.000000000000000000e+01 1.110000000000000000e+02
1.100000000000000000e+01 1.110000000000000000e+02
1.200000000000000000e+01 1.110000000000000000e+02
1.220000000000000000e+02 1.110000000000000000e+02
1.230000000000000000e+02 1.110000000000000000e+02
1.240000000000000000e+02 1.110000000000000000e+02
1.250000000000000000e+02 1.110000000000000000e+02
1.260000000000000000e+02 1.110000000000000000e+02
2.950000000000000000e+02 1.110000000000000000e+02
2.960000000000000000e+02 1.110000000000000000e+02
2.970000000000000000e+02 1.110000000000000000e+02
2.980000000000000000e+02 1.110000000000000000e+02
2.990000000000000000e+02 1.110000000000000000e+02
4.690000000000000000e+02 1.110000000000000000e+02
4.700000000000000000e+02 1.110000000000000000e+02
4.710000000000000000e+02 1.110000000000000000e+02
4.720000000000000000e+02 1.110000000000000000e+02
4.730000000000000000e+02 1.110000000000000000e+02
6.520000000000000000e+02 1.110000000000000000e+02
6.530000000000000000e+02 1.110000000000000000e+02
6.540000000000000000e+02 1.110000000000000000e+02
6.550000000000000000e+02 1.110000000000000000e+02
6.560000000000000000e+02 1.110000000000000000e+02
6.570000000000000000e+02 1.110000000000000000e+02
6.920000000000000000e+02 1.110000000000000000e+02
6.930000000000000000e+02 1.110000000000000000e+02
6.940000000000000000e+02 1.110000000000000000e+02
6.950000000000000000e+02 1.110000000000000000e+02
6.980000000000000000e+02 1.110000000000000000e+02
6.990000000000000000e+02 1.110000000000000000e+02
7.000000000000000000e+02 1.110000000000000000e+02
8.370000000000000000e+02 1.110000000000000000e+02
8.380000000000000000e+02 1.110000000000000000e+02
8.390000000000000000e+02 1.110000000000000000e+02
1.000000000000000000e+01 1.120000000000000000e+02
1.100000000000000000e+01 1.120000000000000000e+02
1.200000000000000000e+01 1.120000000000000000e+02
1.220000000000000000e+02 1.120000000000000000e+02
1.230000000000000000e+02 1.120000000000000000e+02
1.240000000000000000e+02 1.120000000000000000e+02
1.250000000000000000e+02 1.120000000000000000e+02
1.260000000000000000e+02 1.120000000000000000e+02
2.940000000000000000e+02 1.120000000000000000e+02
2.950000000000000000e+02 1.120000000000000000e+02
2.960000000000000000e+02 1.120000000000000000e+02
2.970000000000000000e+02 1.120000000000000000e+02
2.980000000000000000e+02 1.120000000000000000e+02
2.990000000000000000e+02 1.120000000000000000e+02
4.690000000000000000e+02 1.120000000000000000e+02
4.700000000000000000e+02 1.120000000000000000e+02
4.710000000000000000e+02 1.120000000000000000e+02
4.720000000000000000e+02 1.120000000000000000e+02
4.730000000000000000e+02 1.120000000000000000e+02
6.520000000000000000e+02 1.120000000000000000e+02
6.530000000000000000e+02 1.120000000000000000e+02
6.540000000000000000e+02 1.120000000000000000e+02
6.550000000000000000e+02 1.120000000000000000e+02
6.560000000000000000e+02 1.120000000000000000e+02
6.570000000000000000e+02 1.120000000000000000e+02
6.920000000000000000e+02 1.120000000000000000e+02
6.930000000000000000e+02 1.120000000000000000e+02
6.940000000000000000e+02 1.120000000000000000e+02
6.950000000000000000e+02 1.120000000000000000e+02
6.980000000000000000e+02 1.120000000000000000e+02
6.990000000000000000e+02 1.120000000000000000e+02
7.000000000000000000e+02 1.120000000000000000e+02
8.370000000000000000e+02 1.120000000000000000e+02
8.380000000000000000e+02 1.120000000000000000e+02
8.390000000000000000e+02 1.120000000000000000e+02
1.000000000000000000e+01 1.130000000000000000e+02
1.100000000000000000e+01 1.130000000000000000e+02
1.200000000000000000e+01 1.130000000000000000e+02
1.220000000000000000e+02 1.130000000000000000e+02
1.230000000000000000e+02 1.130000000000000000e+02
1.240000000000000000e+02 1.130000000000000000e+02
1.250000000000000000e+02 1.130000000000000000e+02
1.260000000000000000e+02 1.130000000000000000e+02
2.940000000000000000e+02 1.130000000000000000e+02
2.950000000000000000e+02 1.130000000000000000e+02
2.960000000000000000e+02 1.130000000000000000e+02
2.970000000000000000e+02 1.130000000000000000e+02
2.980000000000000000e+02 1.130000000000000000e+02
2.990000000000000000e+02 1.130000000000000000e+02
4.690000000000000000e+02 1.130000000000000000e+02
4.700000000000000000e+02 1.130000000000000000e+02
4.710000000000000000e+02 1.130000000000000000e+02
4.720000000000000000e+02 1.130000000000000000e+02
4.730000000000000000e+02 1.130000000000000000e+02
6.520000000000000000e+02 1.130000000000000000e+02
6.530000000000000000e+02 1.130000000000000000e+02
6.540000000000000000e+02 1.130000000000000000e+02
6.550000000000000000e+02 1.130000000000000000e+02
6.560000000000000000e+02 1.130000000000000000e+02
6.570000000000000000e+02 1.130000000000000000e+02
6.920000000000000000e+02 1.130000000000000000e+02
6.930000000000000000e+02 1.130000000000000000e+02
6.940000000000000000e+02 1.130000000000000000e+02
6.950000000000000000e+02 1.130000000000000000e+02
6.980000000000000000e+02 1.130000000000000000e+02
6.990000000000000000e+02 1.130000000000000000e+02
7.000000000000000000e+02 1.130000000000000000e+02
7.010000000000000000e+02 1.130000000000000000e+02
8.360000000000000000e+02 1.130000000000000000e+02
8.370000000000000000e+02 1.130000000000000000e+02
8.380000000000000000e+02 1.130000000000000000e+02
8.390000000000000000e+02 1.130000000000000000e+02
1.000000000000000000e+01 1.140000000000000000e+02
1.100000000000000000e+01 1.140000000000000000e+02
1.200000000000000000e+01 1.140000000000000000e+02
1.220000000000000000e+02 1.140000000000000000e+02
1.230000000000000000e+02 1.140000000000000000e+02
1.240000000000000000e+02 1.140000000000000000e+02
1.250000000000000000e+02 1.140000000000000000e+02
1.260000000000000000e+02 1.140000000000000000e+02
2.940000000000000000e+02 1.140000000000000000e+02
2.950000000000000000e+02 1.140000000000000000e+02
2.960000000000000000e+02 1.140000000000000000e+02
2.970000000000000000e+02 1.140000000000000000e+02
2.980000000000000000e+02 1.140000000000000000e+02
2.990000000000000000e+02 1.140000000000000000e+02
4.690000000000000000e+02 1.140000000000000000e+02
4.700000000000000000e+02 1.140000000000000000e+02
4.710000000000000000e+02 1.140000000000000000e+02
4.720000000000000000e+02 1.140000000000000000e+02
4.730000000000000000e+02 1.140000000000000000e+02
6.520000000000000000e+02 1.140000000000000000e+02
6.530000000000000000e+02 1.140000000000000000e+02
6.540000000000000000e+02 1.140000000000000000e+02
6.550000000000000000e+02 1.140000000000000000e+02
6.560000000000000000e+02 1.140000000000000000e+02
6.570000000000000000e+02 1.140000000000000000e+02
6.920000000000000000e+02 1.140000000000000000e+02
6.930000000000000000e+02 1.140000000000000000e+02
6.940000000000000000e+02 1.140000000000000000e+02
6.950000000000000000e+02 1.140000000000000000e+02
6.980000000000000000e+02 1.140000000000000000e+02
6.990000000000000000e+02 1.140000000000000000e+02
7.000000000000000000e+02 1.140000000000000000e+02
7.010000000000000000e+02 1.140000000000000000e+02
8.360000000000000000e+02 1.140000000000000000e+02
8.370000000000000000e+02 1.140000000000000000e+02
8.380000000000000000e+02 1.140000000000000000e+02
8.390000000000000000e+02 1.140000000000000000e+02
8.400000000000000000e+02 1.140000000000000000e+02
