9.800000000000000000e+01 0.000000000000000000e+00
9.900000000000000000e+01 0.000000000000000000e+00
1.000000000000000000e+02 0.000000000000000000e+00
1.010000000000000000e+02 0.000000000000000000e+00
1.020000000000000000e+02 0.000000000000000000e+00
2.770000000000000000e+02 0.000000000000000000e+00
2.780000000000000000e+02 0.000000000000000000e+00
2.790000000000000000e+02 0.000000000000000000e+00
2.800000000000000000e+02 0.000000000000000000e+00
2.810000000000000000e+02 0.000000000000000000e+00
2.820000000000000000e+02 0.000000000000000000e+00
4.580000000000000000e+02 0.000000000000000000e+00
4.590000000000000000e+02 0.000000000000000000e+00
6.390000000000000000e+02 0.000000000000000000e+00
6.400000000000000000e+02 0.000000000000000000e+00
6.410000000000000000e+02 0.000000000000000000e+00
6.420000000000000000e+02 0.000000000000000000e+00
8.190000000000000000e+02 0.000000000000000000e+00
8.200000000000000000e+02 0.000000000000000000e+00
8.210000000000000000e+02 0.000000000000000000e+00
8.220000000000000000e+02 0.000000000000000000e+00
8.230000000000000000e+02 0.000000000000000000e+00
9.980000000000000000e+02 0.000000000000000000e+00
9.990000000000000000e+02 0.000000000000000000e+00
9.800000000000000000e+01 1.000000000000000000e+00
9.900000000000000000e+01 1.000000000000000000e+00
1.000000000000000000e+02 1.000000000000000000e+00
1.010000000000000000e+02 1.000000000000000000e+00
1.020000000000000000e+02 1.000000000000000000e+00
2.770000000000000000e+02 1.000000000000000000e+00
2.780000000000000000e+02 1.000000000000000000e+00
2.790000000000000000e+02 1.000000000000000000e+00
2.800000000000000000e+02 1.000000000000000000e+00
2.810000000000000000e+02 1.000000000000000000e+00
6.390000000000000000e+02 1.000000000000000000e+00
6.400000000000000000e+02 1.000000000000000000e+00
6.410000000000000000e+02 1.000000000000000000e+00
6.420000000000000000e+02 1.000000000000000000e+00
8.190000000000000000e+02 1.000000000000000000e+00
8.200000000000000000e+02 1.000000000000000000e+00
8.210000000000000000e+02 1.000000000000000000e+00
8.220000000000000000e+02 1.000000000000000000e+00
8.230000000000000000e+02 1.000000000000000000e+00
9.980000000000000000e+02 1.000000000000000000e+00
9.990000000000000000e+02 1.000000000000000000e+00
9.800000000000000000e+01 2.000000000000000000e+00
9.900000000000000000e+01 2.000000000000000000e+00
1.000000000000000000e+02 2.000000000000000000e+00
1.010000000000000000e+02 2.000000000000000000e+00
2.770000000000000000e+02 2.000000000000000000e+00
2.780000000000000000e+02 2.000000000000000000e+00
2.790000000000000000e+02 2.000000000000000000e+00
2.800000000000000000e+02 2.000000000000000000e+00
2.810000000000000000e+02 2.000000000000000000e+00
6.390000000000000000e+02 2.000000000000000000e+00
6.400000000000000000e+02 2.000000000000000000e+00
6.410000000000000000e+02 2.000000000000000000e+00
6.420000000000000000e+02 2.000000000000000000e+00
8.190000000000000000e+02 2.000000000000000000e+00
8.200000000000000000e+02 2.000000000000000000e+00
8.210000000000000000e+02 2.000000000000000000e+00
8.220000000000000000e+02 2.000000000000000000e+00
8.230000000000000000e+02 2.000000000000000000e+00
9.990000000000000000e+02 2.000000000000000000e+00
9.800000000000000000e+01 3.000000000000000000e+00
9.900000000000000000e+01 3.000000000000000000e+00
1.000000000000000000e+02 3.000000000000000000e+00
1.010000000000000000e+02 3.000000000000000000e+00
2.770000000000000000e+02 3.000000000000000000e+00
2.780000000000000000e+02 3.000000000000000000e+00
2.790000000000000000e+02 3.000000000000000000e+00
2.800000000000000000e+02 3.000000000000000000e+00
2.810000000000000000e+02 3.000000000000000000e+00
6.390000000000000000e+02 3.000000000000000000e+00
6.400000000000000000e+02 3.000000000000000000e+00
6.410000000000000000e+02 3.000000000000000000e+00
8.200000000000000000e+02 3.000000000000000000e+00
8.210000000000000000e+02 3.000000000000000000e+00
8.220000000000000000e+02 3.000000000000000000e+00
8.230000000000000000e+02 3.000000000000000000e+00
9.990000000000000000e+02 3.000000000000000000e+00
9.900000000000000000e+01 4.000000000000000000e+00
1.000000000000000000e+02 4.000000000000000000e+00
1.010000000000000000e+02 4.000000000000000000e+00
2.770000000000000000e+02 4.000000000000000000e+00
2.780000000000000000e+02 4.000000000000000000e+00
2.790000000000000000e+02 4.000000000000000000e+00
2.800000000000000000e+02 4.000000000000000000e+00
2.810000000000000000e+02 4.000000000000000000e+00
8.200000000000000000e+02 4.000000000000000000e+00
8.210000000000000000e+02 4.000000000000000000e+00
8.220000000000000000e+02 4.000000000000000000e+00
8.230000000000000000e+02 4.000000000000000000e+00
9.990000000000000000e+02 4.000000000000000000e+00
2.770000000000000000e+02 5.000000000000000000e+00
2.780000000000000000e+02 5.000000000000000000e+00
2.790000000000000000e+02 5.000000000000000000e+00
2.800000000000000000e+02 5.000000000000000000e+00
2.810000000000000000e+02 5.000000000000000000e+00
8.200000000000000000e+02 5.000000000000000000e+00
8.210000000000000000e+02 5.000000000000000000e+00
8.220000000000000000e+02 5.000000000000000000e+00
9.990000000000000000e+02 5.000000000000000000e+00
2.780000000000000000e+02 6.000000000000000000e+00
2.790000000000000000e+02 6.000000000000000000e+00
2.800000000000000000e+02 6.000000000000000000e+00
2.810000000000000000e+02 6.000000000000000000e+00
8.210000000000000000e+02 6.000000000000000000e+00
2.780000000000000000e+02 7.000000000000000000e+00
2.790000000000000000e+02 7.000000000000000000e+00
2.800000000000000000e+02 7.000000000000000000e+00
2.810000000000000000e+02 7.000000000000000000e+00
2.780000000000000000e+02 8.000000000000000000e+00
2.790000000000000000e+02 8.000000000000000000e+00
2.800000000000000000e+02 8.000000000000000000e+00
2.780000000000000000e+02 9.000000000000000000e+00
2.790000000000000000e+02 9.000000000000000000e+00
2.800000000000000000e+02 9.000000000000000000e+00
2.760000000000000000e+02 9.300000000000000000e+01
2.750000000000000000e+02 9.400000000000000000e+01
2.760000000000000000e+02 9.400000000000000000e+01
2.770000000000000000e+02 9.400000000000000000e+01
2.750000000000000000e+02 9.500000000000000000e+01
2.760000000000000000e+02 9.500000000000000000e+01
2.770000000000000000e+02 9.500000000000000000e+01
2.740000000000000000e+02 9.600000000000000000e+01
2.750000000000000000e+02 9.600000000000000000e+01
2.760000000000000000e+02 9.600000000000000000e+01
2.770000000000000000e+02 9.600000000000000000e+01
9.960000000000000000e+02 9.600000000000000000e+01
9.970000000000000000e+02 9.600000000000000000e+01
9.980000000000000000e+02 9.600000000000000000e+01
2.740000000000000000e+02 9.700000000000000000e+01
2.750000000000000000e+02 9.700000000000000000e+01
2.760000000000000000e+02 9.700000000000000000e+01
2.770000000000000000e+02 9.700000000000000000e+01
9.950000000000000000e+02 9.700000000000000000e+01
9.960000000000000000e+02 9.700000000000000000e+01
9.970000000000000000e+02 9.700000000000000000e+01
9.980000000000000000e+02 9.700000000000000000e+01
2.740000000000000000e+02 9.800000000000000000e+01
2.750000000000000000e+02 9.800000000000000000e+01
2.760000000000000000e+02 9.800000000000000000e+01
2.770000000000000000e+02 9.800000000000000000e+01
9.950000000000000000e+02 9.800000000000000000e+01
9.960000000000000000e+02 9.800000000000000000e+01
9.970000000000000000e+02 9.800000000000000000e+01
9.980000000000000000e+02 9.800000000000000000e+01
2.740000000000000000e+02 9.900000000000000000e+01
2.750000000000000000e+02 9.900000000000000000e+01
2.760000000000000000e+02 9.900000000000000000e+01
2.770000000000000000e+02 9.900000000000000000e+01
2.780000000000000000e+02 9.900000000000000000e+01
8.170000000000000000e+02 9.900000000000000000e+01
8.180000000000000000e+02 9.900000000000000000e+01
9.950000000000000000e+02 9.900000000000000000e+01
9.960000000000000000e+02 9.900000000000000000e+01
9.970000000000000000e+02 9.900000000000000000e+01
9.980000000000000000e+02 9.900000000000000000e+01
9.990000000000000000e+02 9.900000000000000000e+01
2.740000000000000000e+02 1.000000000000000000e+02
2.750000000000000000e+02 1.000000000000000000e+02
2.760000000000000000e+02 1.000000000000000000e+02
2.770000000000000000e+02 1.000000000000000000e+02
2.780000000000000000e+02 1.000000000000000000e+02
4.540000000000000000e+02 1.000000000000000000e+02
4.550000000000000000e+02 1.000000000000000000e+02
4.560000000000000000e+02 1.000000000000000000e+02
8.160000000000000000e+02 1.000000000000000000e+02
8.170000000000000000e+02 1.000000000000000000e+02
8.180000000000000000e+02 1.000000000000000000e+02
8.190000000000000000e+02 1.000000000000000000e+02
9.950000000000000000e+02 1.000000000000000000e+02
9.960000000000000000e+02 1.000000000000000000e+02
9.970000000000000000e+02 1.000000000000000000e+02
9.980000000000000000e+02 1.000000000000000000e+02
9.990000000000000000e+02 1.000000000000000000e+02
2.740000000000000000e+02 1.010000000000000000e+02
2.750000000000000000e+02 1.010000000000000000e+02
2.760000000000000000e+02 1.010000000000000000e+02
2.770000000000000000e+02 1.010000000000000000e+02
2.780000000000000000e+02 1.010000000000000000e+02
4.540000000000000000e+02 1.010000000000000000e+02
4.550000000000000000e+02 1.010000000000000000e+02
4.560000000000000000e+02 1.010000000000000000e+02
8.160000000000000000e+02 1.010000000000000000e+02
8.170000000000000000e+02 1.010000000000000000e+02
8.180000000000000000e+02 1.010000000000000000e+02
8.190000000000000000e+02 1.010000000000000000e+02
9.950000000000000000e+02 1.010000000000000000e+02
9.960000000000000000e+02 1.010000000000000000e+02
9.970000000000000000e+02 1.010000000000000000e+02
9.980000000000000000e+02 1.010000000000000000e+02
9.990000000000000000e+02 1.010000000000000000e+02
2.740000000000000000e+02 1.020000000000000000e+02
2.750000000000000000e+02 1.020000000000000000e+02
2.760000000000000000e+02 1.020000000000000000e+02
2.770000000000000000e+02 1.020000000000000000e+02
2.780000000000000000e+02 1.020000000000000000e+02
2.790000000000000000e+02 1.020000000000000000e+02
4.540000000000000000e+02 1.020000000000000000e+02
4.550000000000000000e+02 1.020000000000000000e+02
4.560000000000000000e+02 1.020000000000000000e+02
4.570000000000000000e+02 1.020000000000000000e+02
6.360000000000000000e+02 1.020000000000000000e+02
6.370000000000000000e+02 1.020000000000000000e+02
8.160000000000000000e+02 1.020000000000000000e+02
8.170000000000000000e+02 1.020000000000000000e+02
8.180000000000000000e+02 1.020000000000000000e+02
8.190000000000000000e+02 1.020000000000000000e+02
8.200000000000000000e+02 1.020000000000000000e+02
9.950000000000000000e+02 1.020000000000000000e+02
9.970000000000000000e+02 1.020000000000000000e+02
9.980000000000000000e+02 1.020000000000000000e+02
9.990000000000000000e+02 1.020000000000000000e+02
2.740000000000000000e+02 1.030000000000000000e+02
2.750000000000000000e+02 1.030000000000000000e+02
2.760000000000000000e+02 1.030000000000000000e+02
2.770000000000000000e+02 1.030000000000000000e+02
2.780000000000000000e+02 1.030000000000000000e+02
2.790000000000000000e+02 1.030000000000000000e+02
4.540000000000000000e+02 1.030000000000000000e+02
4.550000000000000000e+02 1.030000000000000000e+02
4.560000000000000000e+02 1.030000000000000000e+02
4.570000000000000000e+02 1.030000000000000000e+02
6.360000000000000000e+02 1.030000000000000000e+02
6.370000000000000000e+02 1.030000000000000000e+02
6.380000000000000000e+02 1.030000000000000000e+02
8.160000000000000000e+02 1.030000000000000000e+02
8.170000000000000000e+02 1.030000000000000000e+02
8.180000000000000000e+02 1.030000000000000000e+02
8.190000000000000000e+02 1.030000000000000000e+02
8.200000000000000000e+02 1.030000000000000000e+02
9.950000000000000000e+02 1.030000000000000000e+02
9.960000000000000000e+02 1.030000000000000000e+02
9.970000000000000000e+02 1.030000000000000000e+02
9.980000000000000000e+02 1.030000000000000000e+02
9.990000000000000000e+02 1.030000000000000000e+02
9.600000000000000000e+01 1.040000000000000000e+02
9.700000000000000000e+01 1.040000000000000000e+02
2.740000000000000000e+02 1.040000000000000000e+02
2.750000000000000000e+02 1.040000000000000000e+02
2.760000000000000000e+02 1.040000000000000000e+02
2.770000000000000000e+02 1.040000000000000000e+02
2.780000000000000000e+02 1.040000000000000000e+02
2.790000000000000000e+02 1.040000000000000000e+02
4.540000000000000000e+02 1.040000000000000000e+02
4.550000000000000000e+02 1.040000000000000000e+02
4.560000000000000000e+02 1.040000000000000000e+02
4.570000000000000000e+02 1.040000000000000000e+02
6.360000000000000000e+02 1.040000000000000000e+02
6.370000000000000000e+02 1.040000000000000000e+02
6.380000000000000000e+02 1.040000000000000000e+02
8.160000000000000000e+02 1.040000000000000000e+02
8.170000000000000000e+02 1.040000000000000000e+02
8.180000000000000000e+02 1.040000000000000000e+02
8.190000000000000000e+02 1.040000000000000000e+02
8.200000000000000000e+02 1.040000000000000000e+02
9.950000000000000000e+02 1.040000000000000000e+02
9.960000000000000000e+02 1.040000000000000000e+02
9.970000000000000000e+02 1.040000000000000000e+02
9.980000000000000000e+02 1.040000000000000000e+02
9.990000000000000000e+02 1.040000000000000000e+02
9.500000000000000000e+01 1.050000000000000000e+02
9.600000000000000000e+01 1.050000000000000000e+02
9.700000000000000000e+01 1.050000000000000000e+02
9.800000000000000000e+01 1.050000000000000000e+02
2.740000000000000000e+02 1.050000000000000000e+02
2.750000000000000000e+02 1.050000000000000000e+02
2.760000000000000000e+02 1.050000000000000000e+02
2.770000000000000000e+02 1.050000000000000000e+02
2.780000000000000000e+02 1.050000000000000000e+02
2.790000000000000000e+02 1.050000000000000000e+02
4.540000000000000000e+02 1.050000000000000000e+02
4.550000000000000000e+02 1.050000000000000000e+02
4.560000000000000000e+02 1.050000000000000000e+02
4.570000000000000000e+02 1.050000000000000000e+02
6.360000000000000000e+02 1.050000000000000000e+02
6.370000000000000000e+02 1.050000000000000000e+02
6.380000000000000000e+02 1.050000000000000000e+02
6.390000000000000000e+02 1.050000000000000000e+02
8.160000000000000000e+02 1.050000000000000000e+02
8.170000000000000000e+02 1.050000000000000000e+02
8.180000000000000000e+02 1.050000000000000000e+02
8.190000000000000000e+02 1.050000000000000000e+02
8.200000000000000000e+02 1.050000000000000000e+02
9.950000000000000000e+02 1.050000000000000000e+02
9.960000000000000000e+02 1.050000000000000000e+02
9.970000000000000000e+02 1.050000000000000000e+02
9.980000000000000000e+02 1.050000000000000000e+02
9.990000000000000000e+02 1.050000000000000000e+02
9.500000000000000000e+01 1.060000000000000000e+02
9.600000000000000000e+01 1.060000000000000000e+02
9.700000000000000000e+01 1.060000000000000000e+02
9.800000000000000000e+01 1.060000000000000000e+02
2.740000000000000000e+02 1.060000000000000000e+02
2.750000000000000000e+02 1.060000000000000000e+02
2.760000000000000000e+02 1.060000000000000000e+02
2.770000000000000000e+02 1.060000000000000000e+02
2.780000000000000000e+02 1.060000000000000000e+02
2.790000000000000000e+02 1.060000000000000000e+02
4.530000000000000000e+02 1.060000000000000000e+02
4.540000000000000000e+02 1.060000000000000000e+02
4.550000000000000000e+02 1.060000000000000000e+02
4.560000000000000000e+02 1.060000000000000000e+02
4.570000000000000000e+02 1.060000000000000000e+02
4.580000000000000000e+02 1.060000000000000000e+02
6.360000000000000000e+02 1.060000000000000000e+02
6.370000000000000000e+02 1.060000000000000000e+02
6.380000000000000000e+02 1.060000000000000000e+02
6.390000000000000000e+02 1.060000000000000000e+02
6.400000000000000000e+02 1.060000000000000000e+02
8.160000000000000000e+02 1.060000000000000000e+02
8.170000000000000000e+02 1.060000000000000000e+02
8.180000000000000000e+02 1.060000000000000000e+02
8.190000000000000000e+02 1.060000000000000000e+02
8.200000000000000000e+02 1.060000000000000000e+02
9.950000000000000000e+02 1.060000000000000000e+02
9.960000000000000000e+02 1.060000000000000000e+02
9.970000000000000000e+02 1.060000000000000000e+02
9.980000000000000000e+02 1.060000000000000000e+02
9.990000000000000000e+02 1.060000000000000000e+02
9.500000000000000000e+01 1.070000000000000000e+02
9.600000000000000000e+01 1.070000000000000000e+02
9.700000000000000000e+01 1.070000000000000000e+02
9.800000000000000000e+01 1.070000000000000000e+02
9.900000000000000000e+01 1.070000000000000000e+02
2.740000000000000000e+02 1.070000000000000000e+02
2.750000000000000000e+02 1.070000000000000000e+02
2.760000000000000000e+02 1.070000000000000000e+02
2.770000000000000000e+02 1.070000000000000000e+02
2.780000000000000000e+02 1.070000000000000000e+02
2.790000000000000000e+02 1.070000000000000000e+02
4.530000000000000000e+02 1.070000000000000000e+02
4.540000000000000000e+02 1.070000000000000000e+02
4.550000000000000000e+02 1.070000000000000000e+02
4.560000000000000000e+02 1.070000000000000000e+02
4.570000000000000000e+02 1.070000000000000000e+02
4.580000000000000000e+02 1.070000000000000000e+02
6.350000000000000000e+02 1.070000000000000000e+02
6.360000000000000000e+02 1.070000000000000000e+02
6.370000000000000000e+02 1.070000000000000000e+02
6.380000000000000000e+02 1.070000000000000000e+02
6.390000000000000000e+02 1.070000000000000000e+02
6.400000000000000000e+02 1.070000000000000000e+02
8.160000000000000000e+02 1.070000000000000000e+02
8.170000000000000000e+02 1.070000000000000000e+02
8.180000000000000000e+02 1.070000000000000000e+02
8.190000000000000000e+02 1.070000000000000000e+02
8.200000000000000000e+02 1.070000000000000000e+02
8.210000000000000000e+02 1.070000000000000000e+02
9.950000000000000000e+02 1.070000000000000000e+02
9.960000000000000000e+02 1.070000000000000000e+02
9.970000000000000000e+02 1.070000000000000000e+02
9.980000000000000000e+02 1.070000000000000000e+02
9.990000000000000000e+02 1.070000000000000000e+02
9.500000000000000000e+01 1.080000000000000000e+02
9.600000000000000000e+01 1.080000000000000000e+02
9.700000000000000000e+01 1.080000000000000000e+02
9.800000000000000000e+01 1.080000000000000000e+02
9.900000000000000000e+01 1.080000000000000000e+02
2.740000000000000000e+02 1.080000000000000000e+02
2.750000000000000000e+02 1.080000000000000000e+02
2.760000000000000000e+02 1.080000000000000000e+02
2.770000000000000000e+02 1.080000000000000000e+02
2.780000000000000000e+02 1.080000000000000000e+02
2.790000000000000000e+02 1.080000000000000000e+02
4.530000000000000000e+02 1.080000000000000000e+02
4.540000000000000000e+02 1.080000000000000000e+02
4.550000000000000000e+02 1.080000000000000000e+02
4.560000000000000000e+02 1.080000000000000000e+02
4.570000000000000000e+02 1.080000000000000000e+02
4.580000000000000000e+02 1.080000000000000000e+02
6.350000000000000000e+02 1.080000000000000000e+02
6.360000000000000000e+02 1.080000000000000000e+02
6.370000000000000000e+02 1.080000000000000000e+02
6.380000000000000000e+02 1.080000000000000000e+02
6.390000000000000000e+02 1.080000000000000000e+02
6.400000000000000000e+02 1.080000000000000000e+02
8.160000000000000000e+02 1.080000000000000000e+02
8.170000000000000000e+02 1.080000000000000000e+02
8.180000000000000000e+02 1.080000000000000000e+02
8.190000000000000000e+02 1.080000000000000000e+02
8.200000000000000000e+02 1.080000000000000000e+02
8.210000000000000000e+02 1.080000000000000000e+02
9.950000000000000000e+02 1.080000000000000000e+02
9.960000000000000000e+02 1.080000000000000000e+02
9.970000000000000000e+02 1.080000000000000000e+02
9.980000000000000000e+02 1.080000000000000000e+02
9.990000000000000000e+02 1.080000000000000000e+02
9.500000000000000000e+01 1.090000000000000000e+02
9.600000000000000000e+01 1.090000000000000000e+02
9.700000000000000000e+01 1.090000000000000000e+02
9.800000000000000000e+01 1.090000000000000000e+02
9.900000000000000000e+01 1.090000000000000000e+02
2.740000000000000000e+02 1.090000000000000000e+02
2.750000000000000000e+02 1.090000000000000000e+02
2.760000000000000000e+02 1.090000000000000000e+02
2.770000000000000000e+02 1.090000000000000000e+02
2.780000000000000000e+02 1.090000000000000000e+02
2.790000000000000000e+02 1.090000000000000000e+02
4.530000000000000000e+02 1.090000000000000000e+02
4.540000000000000000e+02 1.090000000000000000e+02
4.550000000000000000e+02 1.090000000000000000e+02
4.560000000000000000e+02 1.090000000000000000e+02
4.570000000000000000e+02 1.090000000000000000e+02
4.580000000000000000e+02 1.090000000000000000e+02
6.350000000000000000e+02 1.090000000000000000e+02
6.360000000000000000e+02 1.090000000000000000e+02
6.370000000000000000e+02 1.090000000000000000e+02
6.380000000000000000e+02 1.090000000000000000e+02
6.390000000000000000e+02 1.090000000000000000e+02
6.400000000000000000e+02 1.090000000000000000e+02
8.160000000000000000e+02 1.090000000000000000e+02
8.170000000000000000e+02 1.090000000000000000e+02
8.180000000000000000e+02 1.090000000000000000e+02
8.190000000000000000e+02 1.090000000000000000e+02
8.200000000000000000e+02 1.090000000000000000e+02
8.210000000000000000e+02 1.090000000000000000e+02
9.950000000000000000e+02 1.090000000000000000e+02
9.960000000000000000e+02 1.090000000000000000e+02
9.970000000000000000e+02 1.090000000000000000e+02
9.980000000000000000e+02 1.090000000000000000e+02
9.990000000000000000e+02 1.090000000000000000e+02
9.500000000000000000e+01 1.100000000000000000e+02
9.600000000000000000e+01 1.100000000000000000e+02
9.700000000000000000e+01 1.100000000000000000e+02
9.800000000000000000e+01 1.100000000000000000e+02
9.900000000000000000e+01 1.100000000000000000e+02
2.740000000000000000e+02 1.100000000000000000e+02
2.750000000000000000e+02 1.100000000000000000e+02
2.760000000000000000e+02 1.100000000000000000e+02
2.770000000000000000e+02 1.100000000000000000e+02
2.780000000000000000e+02 1.100000000000000000e+02
2.790000000000000000e+02 1.100000000000000000e+02
4.530000000000000000e+02 1.100000000000000000e+02
4.540000000000000000e+02 1.100000000000000000e+02
4.550000000000000000e+02 1.100000000000000000e+02
4.560000000000000000e+02 1.100000000000000000e+02
4.570000000000000000e+02 1.100000000000000000e+02
4.580000000000000000e+02 1.100000000000000000e+02
6.350000000000000000e+02 1.100000000000000000e+02
6.360000000000000000e+02 1.100000000000000000e+02
6.370000000000000000e+02 1.100000000000000000e+02
6.380000000000000000e+02 1.100000000000000000e+02
6.390000000000000000e+02 1.100000000000000000e+02
6.400000000000000000e+02 1.100000000000000000e+02
8.160000000000000000e+02 1.100000000000000000e+02
8.170000000000000000e+02 1.100000000000000000e+02
8.180000000000000000e+02 1.100000000000000000e+02
8.190000000000000000e+02 1.100000000000000000e+02
8.200000000000000000e+02 1.100000000000000000e+02
8.210000000000000000e+02 1.100000000000000000e+02
9.950000000000000000e+02 1.100000000000000000e+02
9.960000000000000000e+02 1.100000000000000000e+02
9.970000000000000000e+02 1.100000000000000000e+02
9.980000000000000000e+02 1.100000000000000000e+02
9.990000000000000000e+02 1.100000000000000000e+02
9.500000000000000000e+01 1.110000000000000000e+02
9.600000000000000000e+01 1.110000000000000000e+02
9.700000000000000000e+01 1.110000000000000000e+02
9.800000000000000000e+01 1.110000000000000000e+02
9.900000000000000000e+01 1.110000000000000000e+02
2.740000000000000000e+02 1.110000000000000000e+02
2.750000000000000000e+02 1.110000000000000000e+02
2.760000000000000000e+02 1.110000000000000000e+02
2.770000000000000000e+02 1.110000000000000000e+02
2.780000000000000000e+02 1.110000000000000000e+02
2.790000000000000000e+02 1.110000000000000000e+02
4.530000000000000000e+02 1.110000000000000000e+02
4.540000000000000000e+02 1.110000000000000000e+02
4.550000000000000000e+02 1.110000000000000000e+02
4.560000000000000000e+02 1.110000000000000000e+02
4.570000000000000000e+02 1.110000000000000000e+02
4.580000000000000000e+02 1.110000000000000000e+02
6.350000000000000000e+02 1.110000000000000000e+02
6.360000000000000000e+02 1.110000000000000000e+02
6.370000000000000000e+02 1.110000000000000000e+02
6.380000000000000000e+02 1.110000000000000000e+02
6.390000000000000000e+02 1.110000000000000000e+02
6.400000000000000000e+02 1.110000000000000000e+02
8.160000000000000000e+02 1.110000000000000000e+02
8.170000000000000000e+02 1.110000000000000000e+02
8.180000000000000000e+02 1.110000000000000000e+02
8.190000000000000000e+02 1.110000000000000000e+02
8.200000000000000000e+02 1.110000000000000000e+02
8.210000000000000000e+02 1.110000000000000000e+02
9.950000000000000000e+02 1.110000000000000000e+02
9.960000000000000000e+02 1.110000000000000000e+02
9.970000000000000000e+02 1.110000000000000000e+02
9.980000000000000000e+02 1.110000000000000000e+02
9.990000000000000000e+02 1.110000000000000000e+02
9.500000000000000000e+01 1.120000000000000000e+02
9.600000000000000000e+01 1.120000000000000000e+02
9.700000000000000000e+01 1.120000000000000000e+02
9.800000000000000000e+01 1.120000000000000000e+02
9.900000000000000000e+01 1.120000000000000000e+02
1.000000000000000000e+02 1.120000000000000000e+02
2.740000000000000000e+02 1.120000000000000000e+02
2.750000000000000000e+02 1.120000000000000000e+02
2.760000000000000000e+02 1.120000000000000000e+02
2.770000000000000000e+02 1.120000000000000000e+02
2.780000000000000000e+02 1.120000000000000000e+02
2.790000000000000000e+02 1.120000000000000000e+02
4.530000000000000000e+02 1.120000000000000000e+02
4.540000000000000000e+02 1.120000000000000000e+02
4.550000000000000000e+02 1.120000000000000000e+02
4.560000000000000000e+02 1.120000000000000000e+02
4.570000000000000000e+02 1.120000000000000000e+02
4.580000000000000000e+02 1.120000000000000000e+02
6.350000000000000000e+02 1.120000000000000000e+02
6.360000000000000000e+02 1.120000000000000000e+02
6.370000000000000000e+02 1.120000000000000000e+02
6.380000000000000000e+02 1.120000000000000000e+02
6.390000000000000000e+02 1.120000000000000000e+02
6.400000000000000000e+02 1.120000000000000000e+02
8.160000000000000000e+02 1.120000000000000000e+02
8.170000000000000000e+02 1.120000000000000000e+02
8.180000000000000000e+02 1.120000000000000000e+02
8.190000000000000000e+02 1.120000000000000000e+02
8.200000000000000000e+02 1.120000000000000000e+02
8.210000000000000000e+02 1.120000000000000000e+02
9.950000000000000000e+02 1.120000000000000000e+02
9.960000000000000000e+02 1.120000000000000000e+02
9.970000000000000000e+02 1.120000000000000000e+02
9.980000000000000000e+02 1.120000000000000000e+02
9.990000000000000000e+02 1.120000000000000000e+02
9.400000000000000000e+01 1.130000000000000000e+02
9.500000000000000000e+01 1.130000000000000000e+02
9.600000000000000000e+01 1.130000000000000000e+02
9.700000000000000000e+01 1.130000000000000000e+02
9.800000000000000000e+01 1.130000000000000000e+02
9.900000000000000000e+01 1.130000000000000000e+02
1.000000000000000000e+02 1.130000000000000000e+02
2.740000000000000000e+02 1.130000000000000000e+02
2.750000000000000000e+02 1.130000000000000000e+02
2.760000000000000000e+02 1.130000000000000000e+02
2.770000000000000000e+02 1.130000000000000000e+02
2.780000000000000000e+02 1.130000000000000000e+02
2.790000000000000000e+02 1.130000000000000000e+02
4.530000000000000000e+02 1.130000000000000000e+02
4.540000000000000000e+02 1.130000000000000000e+02
4.550000000000000000e+02 1.130000000000000000e+02
4.560000000000000000e+02 1.130000000000000000e+02
4.570000000000000000e+02 1.130000000000000000e+02
4.580000000000000000e+02 1.130000000000000000e+02
6.350000000000000000e+02 1.130000000000000000e+02
6.360000000000000000e+02 1.130000000000000000e+02
6.370000000000000000e+02 1.130000000000000000e+02
6.380000000000000000e+02 1.130000000000000000e+02
6.390000000000000000e+02 1.130000000000000000e+02
6.400000000000000000e+02 1.130000000000000000e+02
8.160000000000000000e+02 1.130000000000000000e+02
8.170000000000000000e+02 1.130000000000000000e+02
8.180000000000000000e+02 1.130000000000000000e+02
8.190000000000000000e+02 1.130000000000000000e+02
8.200000000000000000e+02 1.130000000000000000e+02
8.210000000000000000e+02 1.130000000000000000e+02
9.950000000000000000e+02 1.130000000000000000e+02
9.960000000000000000e+02 1.130000000000000000e+02
9.970000000000000000e+02 1.130000000000000000e+02
9.980000000000000000e+02 1.130000000000000000e+02
9.990000000000000000e+02 1.130000000000000000e+02
9.400000000000000000e+01 1.140000000000000000e+02
9.500000000000000000e+01 1.140000000000000000e+02
9.600000000000000000e+01 1.140000000000000000e+02
9.700000000000000000e+01 1.140000000000000000e+02
9.800000000000000000e+01 1.140000000000000000e+02
9.900000000000000000e+01 1.140000000000000000e+02
1.000000000000000000e+02 1.140000000000000000e+02
2.740000000000000000e+02 1.140000000000000000e+02
2.750000000000000000e+02 1.140000000000000000e+02
2.760000000000000000e+02 1.140000000000000000e+02
2.770000000000000000e+02 1.140000000000000000e+02
2.780000000000000000e+02 1.140000000000000000e+02
2.790000000000000000e+02 1.140000000000000000e+02
4.530000000000000000e+02 1.140000000000000000e+02
4.540000000000000000e+02 1.140000000000000000e+02
4.550000000000000000e+02 1.140000000000000000e+02
4.560000000000000000e+02 1.140000000000000000e+02
4.570000000000000000e+02 1.140000000000000000e+02
4.580000000000000000e+02 1.140000000000000000e+02
6.350000000000000000e+02 1.140000000000000000e+02
6.360000000000000000e+02 1.140000000000000000e+02
6.370000000000000000e+02 1.140000000000000000e+02
6.380000000000000000e+02 1.140000000000000000e+02
6.390000000000000000e+02 1.140000000000000000e+02
6.400000000000000000e+02 1.140000000000000000e+02
8.160000000000000000e+02 1.140000000000000000e+02
8.170000000000000000e+02 1.140000000000000000e+02
8.180000000000000000e+02 1.140000000000000000e+02
8.190000000000000000e+02 1.140000000000000000e+02
8.200000000000000000e+02 1.140000000000000000e+02
8.210000000000000000e+02 1.140000000000000000e+02
9.950000000000000000e+02 1.140000000000000000e+02
9.960000000000000000e+02 1.140000000000000000e+02
9.970000000000000000e+02 1.140000000000000000e+02
9.980000000000000000e+02 1.140000000000000000e+02
9.990000000000000000e+02 1.140000000000000000e+02
9.400000000000000000e+01 1.150000000000000000e+02
9.500000000000000000e+01 1.150000000000000000e+02
9.600000000000000000e+01 1.150000000000000000e+02
9.700000000000000000e+01 1.150000000000000000e+02
9.800000000000000000e+01 1.150000000000000000e+02
9.900000000000000000e+01 1.150000000000000000e+02
1.000000000000000000e+02 1.150000000000000000e+02
2.740000000000000000e+02 1.150000000000000000e+02
2.750000000000000000e+02 1.150000000000000000e+02
2.760000000000000000e+02 1.150000000000000000e+02
2.770000000000000000e+02 1.150000000000000000e+02
2.780000000000000000e+02 1.150000000000000000e+02
2.790000000000000000e+02 1.150000000000000000e+02
2.800000000000000000e+02 1.150000000000000000e+02
4.530000000000000000e+02 1.150000000000000000e+02
4.540000000000000000e+02 1.150000000000000000e+02
4.550000000000000000e+02 1.150000000000000000e+02
4.560000000000000000e+02 1.150000000000000000e+02
4.570000000000000000e+02 1.150000000000000000e+02
4.580000000000000000e+02 1.150000000000000000e+02
6.350000000000000000e+02 1.150000000000000000e+02
6.360000000000000000e+02 1.150000000000000000e+02
6.370000000000000000e+02 1.150000000000000000e+02
6.380000000000000000e+02 1.150000000000000000e+02
6.390000000000000000e+02 1.150000000000000000e+02
6.400000000000000000e+02 1.150000000000000000e+02
8.160000000000000000e+02 1.150000000000000000e+02
8.170000000000000000e+02 1.150000000000000000e+02
8.180000000000000000e+02 1.150000000000000000e+02
8.190000000000000000e+02 1.150000000000000000e+02
8.200000000000000000e+02 1.150000000000000000e+02
8.210000000000000000e+02 1.150000000000000000e+02
9.950000000000000000e+02 1.150000000000000000e+02
9.960000000000000000e+02 1.150000000000000000e+02
9.970000000000000000e+02 1.150000000000000000e+02
9.980000000000000000e+02 1.150000000000000000e+02
9.990000000000000000e+02 1.150000000000000000e+02
9.400000000000000000e+01 1.160000000000000000e+02
9.500000000000000000e+01 1.160000000000000000e+02
9.600000000000000000e+01 1.160000000000000000e+02
9.700000000000000000e+01 1.160000000000000000e+02
9.800000000000000000e+01 1.160000000000000000e+02
9.900000000000000000e+01 1.160000000000000000e+02
1.000000000000000000e+02 1.160000000000000000e+02
2.740000000000000000e+02 1.160000000000000000e+02
2.750000000000000000e+02 1.160000000000000000e+02
2.760000000000000000e+02 1.160000000000000000e+02
2.770000000000000000e+02 1.160000000000000000e+02
2.780000000000000000e+02 1.160000000000000000e+02
2.790000000000000000e+02 1.160000000000000000e+02
2.800000000000000000e+02 1.160000000000000000e+02
4.530000000000000000e+02 1.160000000000000000e+02
4.540000000000000000e+02 1.160000000000000000e+02
4.550000000000000000e+02 1.160000000000000000e+02
4.560000000000000000e+02 1.160000000000000000e+02
4.570000000000000000e+02 1.160000000000000000e+02
4.580000000000000000e+02 1.160000000000000000e+02
6.350000000000000000e+02 1.160000000000000000e+02
6.360000000000000000e+02 1.160000000000000000e+02
6.370000000000000000e+02 1.160000000000000000e+02
6.380000000000000000e+02 1.160000000000000000e+02
6.390000000000000000e+02 1.160000000000000000e+02
6.400000000000000000e+02 1.160000000000000000e+02
6.410000000000000000e+02 1.160000000000000000e+02
8.160000000000000000e+02 1.160000000000000000e+02
8.170000000000000000e+02 1.160000000000000000e+02
8.180000000000000000e+02 1.160000000000000000e+02
8.190000000000000000e+02 1.160000000000000000e+02
8.200000000000000000e+02 1.160000000000000000e+02
8.210000000000000000e+02 1.160000000000000000e+02
9.950000000000000000e+02 1.160000000000000000e+02
9.960000000000000000e+02 1.160000000000000000e+02
9.970000000000000000e+02 1.160000000000000000e+02
9.980000000000000000e+02 1.160000000000000000e+02
9.990000000000000000e+02 1.160000000000000000e+02
9.400000000000000000e+01 1.170000000000000000e+02
9.500000000000000000e+01 1.170000000000000000e+02
9.600000000000000000e+01 1.170000000000000000e+02
9.700000000000000000e+01 1.170000000000000000e+02
9.800000000000000000e+01 1.170000000000000000e+02
9.900000000000000000e+01 1.170000000000000000e+02
1.000000000000000000e+02 1.170000000000000000e+02
2.740000000000000000e+02 1.170000000000000000e+02
2.750000000000000000e+02 1.170000000000000000e+02
2.760000000000000000e+02 1.170000000000000000e+02
2.770000000000000000e+02 1.170000000000000000e+02
2.780000000000000000e+02 1.170000000000000000e+02
2.790000000000000000e+02 1.170000000000000000e+02
2.800000000000000000e+02 1.170000000000000000e+02
4.530000000000000000e+02 1.170000000000000000e+02
4.540000000000000000e+02 1.170000000000000000e+02
4.550000000000000000e+02 1.170000000000000000e+02
4.560000000000000000e+02 1.170000000000000000e+02
4.570000000000000000e+02 1.170000000000000000e+02
4.580000000000000000e+02 1.170000000000000000e+02
4.590000000000000000e+02 1.170000000000000000e+02
6.350000000000000000e+02 1.170000000000000000e+02
6.360000000000000000e+02 1.170000000000000000e+02
6.370000000000000000e+02 1.170000000000000000e+02
6.380000000000000000e+02 1.170000000000000000e+02
6.390000000000000000e+02 1.170000000000000000e+02
6.400000000000000000e+02 1.170000000000000000e+02
6.410000000000000000e+02 1.170000000000000000e+02
8.160000000000000000e+02 1.170000000000000000e+02
8.170000000000000000e+02 1.170000000000000000e+02
8.180000000000000000e+02 1.170000000000000000e+02
8.190000000000000000e+02 1.170000000000000000e+02
8.200000000000000000e+02 1.170000000000000000e+02
8.210000000000000000e+02 1.170000000000000000e+02
9.950000000000000000e+02 1.170000000000000000e+02
9.960000000000000000e+02 1.170000000000000000e+02
9.970000000000000000e+02 1.170000000000000000e+02
9.980000000000000000e+02 1.170000000000000000e+02
9.990000000000000000e+02 1.170000000000000000e+02
9.400000000000000000e+01 1.180000000000000000e+02
9.500000000000000000e+01 1.180000000000000000e+02
9.600000000000000000e+01 1.180000000000000000e+02
9.700000000000000000e+01 1.180000000000000000e+02
9.800000000000000000e+01 1.180000000000000000e+02
9.900000000000000000e+01 1.180000000000000000e+02
1.000000000000000000e+02 1.180000000000000000e+02
2.740000000000000000e+02 1.180000000000000000e+02
2.750000000000000000e+02 1.180000000000000000e+02
2.760000000000000000e+02 1.180000000000000000e+02
2.780000000000000000e+02 1.180000000000000000e+02
2.790000000000000000e+02 1.180000000000000000e+02
2.800000000000000000e+02 1.180000000000000000e+02
4.530000000000000000e+02 1.180000000000000000e+02
4.540000000000000000e+02 1.180000000000000000e+02
4.550000000000000000e+02 1.180000000000000000e+02
4.560000000000000000e+02 1.180000000000000000e+02
4.570000000000000000e+02 1.180000000000000000e+02
4.580000000000000000e+02 1.180000000000000000e+02
4.590000000000000000e+02 1.180000000000000000e+02
6.350000000000000000e+02 1.180000000000000000e+02
6.360000000000000000e+02 1.180000000000000000e+02
6.370000000000000000e+02 1.180000000000000000e+02
6.390000000000000000e+02 1.180000000000000000e+02
6.400000000000000000e+02 1.180000000000000000e+02
6.410000000000000000e+02 1.180000000000000000e+02
8.160000000000000000e+02 1.180000000000000000e+02
8.170000000000000000e+02 1.180000000000000000e+02
8.180000000000000000e+02 1.180000000000000000e+02
8.190000000000000000e+02 1.180000000000000000e+02
8.200000000000000000e+02 1.180000000000000000e+02
8.210000000000000000e+02 1.180000000000000000e+02
9.950000000000000000e+02 1.180000000000000000e+02
9.960000000000000000e+02 1.180000000000000000e+02
9.970000000000000000e+02 1.180000000000000000e+02
9.980000000000000000e+02 1.180000000000000000e+02
9.990000000000000000e+02 1.180000000000000000e+02
9.400000000000000000e+01 1.190000000000000000e+02
9.500000000000000000e+01 1.190000000000000000e+02
9.600000000000000000e+01 1.190000000000000000e+02
9.700000000000000000e+01 1.190000000000000000e+02
9.800000000000000000e+01 1.190000000000000000e+02
9.900000000000000000e+01 1.190000000000000000e+02
1.000000000000000000e+02 1.190000000000000000e+02
2.730000000000000000e+02 1.190000000000000000e+02
2.740000000000000000e+02 1.190000000000000000e+02
2.750000000000000000e+02 1.190000000000000000e+02
2.760000000000000000e+02 1.190000000000000000e+02
2.780000000000000000e+02 1.190000000000000000e+02
2.790000000000000000e+02 1.190000000000000000e+02
2.800000000000000000e+02 1.190000000000000000e+02
4.530000000000000000e+02 1.190000000000000000e+02
4.540000000000000000e+02 1.190000000000000000e+02
4.550000000000000000e+02 1.190000000000000000e+02
4.560000000000000000e+02 1.190000000000000000e+02
4.570000000000000000e+02 1.190000000000000000e+02
4.580000000000000000e+02 1.190000000000000000e+02
4.590000000000000000e+02 1.190000000000000000e+02
6.350000000000000000e+02 1.190000000000000000e+02
6.360000000000000000e+02 1.190000000000000000e+02
6.370000000000000000e+02 1.190000000000000000e+02
6.390000000000000000e+02 1.190000000000000000e+02
6.400000000000000000e+02 1.190000000000000000e+02
6.410000000000000000e+02 1.190000000000000000e+02
8.160000000000000000e+02 1.190000000000000000e+02
8.170000000000000000e+02 1.190000000000000000e+02
8.180000000000000000e+02 1.190000000000000000e+02
8.190000000000000000e+02 1.190000000000000000e+02
8.200000000000000000e+02 1.190000000000000000e+02
8.210000000000000000e+02 1.190000000000000000e+02
8.220000000000000000e+02 1.190000000000000000e+02
9.950000000000000000e+02 1.190000000000000000e+02
9.960000000000000000e+02 1.190000000000000000e+02
9.970000000000000000e+02 1.190000000000000000e+02
9.980000000000000000e+02 1.190000000000000000e+02
9.990000000000000000e+02 1.190000000000000000e+02
9.400000000000000000e+01 1.200000000000000000e+02
9.500000000000000000e+01 1.200000000000000000e+02
9.600000000000000000e+01 1.200000000000000000e+02
9.700000000000000000e+01 1.200000000000000000e+02
9.800000000000000000e+01 1.200000000000000000e+02
9.900000000000000000e+01 1.200000000000000000e+02
1.000000000000000000e+02 1.200000000000000000e+02
2.730000000000000000e+02 1.200000000000000000e+02
2.740000000000000000e+02 1.200000000000000000e+02
2.750000000000000000e+02 1.200000000000000000e+02
2.760000000000000000e+02 1.200000000000000000e+02
2.780000000000000000e+02 1.200000000000000000e+02
2.790000000000000000e+02 1.200000000000000000e+02
2.800000000000000000e+02 1.200000000000000000e+02
4.530000000000000000e+02 1.200000000000000000e+02
4.540000000000000000e+02 1.200000000000000000e+02
4.550000000000000000e+02 1.200000000000000000e+02
4.560000000000000000e+02 1.200000000000000000e+02
4.570000000000000000e+02 1.200000000000000000e+02
4.580000000000000000e+02 1.200000000000000000e+02
4.590000000000000000e+02 1.200000000000000000e+02
6.350000000000000000e+02 1.200000000000000000e+02
6.360000000000000000e+02 1.200000000000000000e+02
6.370000000000000000e+02 1.200000000000000000e+02
6.390000000000000000e+02 1.200000000000000000e+02
6.400000000000000000e+02 1.200000000000000000e+02
6.410000000000000000e+02 1.200000000000000000e+02
8.150000000000000000e+02 1.200000000000000000e+02
8.160000000000000000e+02 1.200000000000000000e+02
8.170000000000000000e+02 1.200000000000000000e+02
8.180000000000000000e+02 1.200000000000000000e+02
8.190000000000000000e+02 1.200000000000000000e+02
8.200000000000000000e+02 1.200000000000000000e+02
8.210000000000000000e+02 1.200000000000000000e+02
8.220000000000000000e+02 1.200000000000000000e+02
9.950000000000000000e+02 1.200000000000000000e+02
9.960000000000000000e+02 1.200000000000000000e+02
9.970000000000000000e+02 1.200000000000000000e+02
9.980000000000000000e+02 1.200000000000000000e+02
9.990000000000000000e+02 1.200000000000000000e+02
9.400000000000000000e+01 1.210000000000000000e+02
9.500000000000000000e+01 1.210000000000000000e+02
9.600000000000000000e+01 1.210000000000000000e+02
9.800000000000000000e+01 1.210000000000000000e+02
9.900000000000000000e+01 1.210000000000000000e+02
1.000000000000000000e+02 1.210000000000000000e+02
2.730000000000000000e+02 1.210000000000000000e+02
2.740000000000000000e+02 1.210000000000000000e+02
2.750000000000000000e+02 1.210000000000000000e+02
2.760000000000000000e+02 1.210000000000000000e+02
2.780000000000000000e+02 1.210000000000000000e+02
2.790000000000000000e+02 1.210000000000000000e+02
2.800000000000000000e+02 1.210000000000000000e+02
4.530000000000000000e+02 1.210000000000000000e+02
4.540000000000000000e+02 1.210000000000000000e+02
4.550000000000000000e+02 1.210000000000000000e+02
4.560000000000000000e+02 1.210000000000000000e+02
4.570000000000000000e+02 1.210000000000000000e+02
4.580000000000000000e+02 1.210000000000000000e+02
4.590000000000000000e+02 1.210000000000000000e+02
6.350000000000000000e+02 1.210000000000000000e+02
6.360000000000000000e+02 1.210000000000000000e+02
6.370000000000000000e+02 1.210000000000000000e+02
6.390000000000000000e+02 1.210000000000000000e+02
6.400000000000000000e+02 1.210000000000000000e+02
6.410000000000000000e+02 1.210000000000000000e+02
8.150000000000000000e+02 1.210000000000000000e+02
8.160000000000000000e+02 1.210000000000000000e+02
8.170000000000000000e+02 1.210000000000000000e+02
8.180000000000000000e+02 1.210000000000000000e+02
8.200000000000000000e+02 1.210000000000000000e+02
8.210000000000000000e+02 1.210000000000000000e+02
8.220000000000000000e+02 1.210000000000000000e+02
9.940000000000000000e+02 1.210000000000000000e+02
9.950000000000000000e+02 1.210000000000000000e+02
9.960000000000000000e+02 1.210000000000000000e+02
9.970000000000000000e+02 1.210000000000000000e+02
9.990000000000000000e+02 1.210000000000000000e+02
9.400000000000000000e+01 1.220000000000000000e+02
9.500000000000000000e+01 1.220000000000000000e+02
9.600000000000000000e+01 1.220000000000000000e+02
9.800000000000000000e+01 1.220000000000000000e+02
9.900000000000000000e+01 1.220000000000000000e+02
1.000000000000000000e+02 1.220000000000000000e+02
2.730000000000000000e+02 1.220000000000000000e+02
2.740000000000000000e+02 1.220000000000000000e+02
2.750000000000000000e+02 1.220000000000000000e+02
2.760000000000000000e+02 1.220000000000000000e+02
2.780000000000000000e+02 1.220000000000000000e+02
2.790000000000000000e+02 1.220000000000000000e+02
2.800000000000000000e+02 1.220000000000000000e+02
4.530000000000000000e+02 1.220000000000000000e+02
4.540000000000000000e+02 1.220000000000000000e+02
4.550000000000000000e+02 1.220000000000000000e+02
4.570000000000000000e+02 1.220000000000000000e+02
4.580000000000000000e+02 1.220000000000000000e+02
4.590000000000000000e+02 1.220000000000000000e+02
6.350000000000000000e+02 1.220000000000000000e+02
6.360000000000000000e+02 1.220000000000000000e+02
6.370000000000000000e+02 1.220000000000000000e+02
6.390000000000000000e+02 1.220000000000000000e+02
6.400000000000000000e+02 1.220000000000000000e+02
6.410000000000000000e+02 1.220000000000000000e+02
8.150000000000000000e+02 1.220000000000000000e+02
8.160000000000000000e+02 1.220000000000000000e+02
8.170000000000000000e+02 1.220000000000000000e+02
8.180000000000000000e+02 1.220000000000000000e+02
8.200000000000000000e+02 1.220000000000000000e+02
8.210000000000000000e+02 1.220000000000000000e+02
8.220000000000000000e+02 1.220000000000000000e+02
9.940000000000000000e+02 1.220000000000000000e+02
9.950000000000000000e+02 1.220000000000000000e+02
9.960000000000000000e+02 1.220000000000000000e+02
9.970000000000000000e+02 1.220000000000000000e+02
9.990000000000000000e+02 1.220000000000000000e+02
9.400000000000000000e+01 1.230000000000000000e+02
9.500000000000000000e+01 1.230000000000000000e+02
9.600000000000000000e+01 1.230000000000000000e+02
9.800000000000000000e+01 1.230000000000000000e+02
9.900000000000000000e+01 1.230000000000000000e+02
1.000000000000000000e+02 1.230000000000000000e+02
1.010000000000000000e+02 1.230000000000000000e+02
2.730000000000000000e+02 1.230000000000000000e+02
2.740000000000000000e+02 1.230000000000000000e+02
2.750000000000000000e+02 1.230000000000000000e+02
2.760000000000000000e+02 1.230000000000000000e+02
2.780000000000000000e+02 1.230000000000000000e+02
2.790000000000000000e+02 1.230000000000000000e+02
2.800000000000000000e+02 1.230000000000000000e+02
4.530000000000000000e+02 1.230000000000000000e+02
4.540000000000000000e+02 1.230000000000000000e+02
4.550000000000000000e+02 1.230000000000000000e+02
4.570000000000000000e+02 1.230000000000000000e+02
4.580000000000000000e+02 1.230000000000000000e+02
4.590000000000000000e+02 1.230000000000000000e+02
6.350000000000000000e+02 1.230000000000000000e+02
6.360000000000000000e+02 1.230000000000000000e+02
6.370000000000000000e+02 1.230000000000000000e+02
6.390000000000000000e+02 1.230000000000000000e+02
6.400000000000000000e+02 1.230000000000000000e+02
6.410000000000000000e+02 1.230000000000000000e+02
8.150000000000000000e+02 1.230000000000000000e+02
8.160000000000000000e+02 1.230000000000000000e+02
8.170000000000000000e+02 1.230000000000000000e+02
8.180000000000000000e+02 1.230000000000000000e+02
8.200000000000000000e+02 1.230000000000000000e+02
8.210000000000000000e+02 1.230000000000000000e+02
8.220000000000000000e+02 1.230000000000000000e+02
9.940000000000000000e+02 1.230000000000000000e+02
9.950000000000000000e+02 1.230000000000000000e+02
9.960000000000000000e+02 1.230000000000000000e+02
9.970000000000000000e+02 1.230000000000000000e+02
9.990000000000000000e+02 1.230000000000000000e+02
9.400000000000000000e+01 1.240000000000000000e+02
9.500000000000000000e+01 1.240000000000000000e+02
9.600000000000000000e+01 1.240000000000000000e+02
9.800000000000000000e+01 1.240000000000000000e+02
9.900000000000000000e+01 1.240000000000000000e+02
1.000000000000000000e+02 1.240000000000000000e+02
1.010000000000000000e+02 1.240000000000000000e+02
2.730000000000000000e+02 1.240000000000000000e+02
2.740000000000000000e+02 1.240000000000000000e+02
2.750000000000000000e+02 1.240000000000000000e+02
2.760000000000000000e+02 1.240000000000000000e+02
2.780000000000000000e+02 1.240000000000000000e+02
2.790000000000000000e+02 1.240000000000000000e+02
2.800000000000000000e+02 1.240000000000000000e+02
4.530000000000000000e+02 1.240000000000000000e+02
4.540000000000000000e+02 1.240000000000000000e+02
4.550000000000000000e+02 1.240000000000000000e+02
4.570000000000000000e+02 1.240000000000000000e+02
4.580000000000000000e+02 1.240000000000000000e+02
4.590000000000000000e+02 1.240000000000000000e+02
6.350000000000000000e+02 1.240000000000000000e+02
6.360000000000000000e+02 1.240000000000000000e+02
6.370000000000000000e+02 1.240000000000000000e+02
6.390000000000000000e+02 1.240000000000000000e+02
6.400000000000000000e+02 1.240000000000000000e+02
6.410000000000000000e+02 1.240000000000000000e+02
6.420000000000000000e+02 1.240000000000000000e+02
8.150000000000000000e+02 1.240000000000000000e+02
8.160000000000000000e+02 1.240000000000000000e+02
8.170000000000000000e+02 1.240000000000000000e+02
8.180000000000000000e+02 1.240000000000000000e+02
8.200000000000000000e+02 1.240000000000000000e+02
8.210000000000000000e+02 1.240000000000000000e+02
8.220000000000000000e+02 1.240000000000000000e+02
9.940000000000000000e+02 1.240000000000000000e+02
9.950000000000000000e+02 1.240000000000000000e+02
9.960000000000000000e+02 1.240000000000000000e+02
9.970000000000000000e+02 1.240000000000000000e+02
9.990000000000000000e+02 1.240000000000000000e+02
9.400000000000000000e+01 1.250000000000000000e+02
9.500000000000000000e+01 1.250000000000000000e+02
9.600000000000000000e+01 1.250000000000000000e+02
9.800000000000000000e+01 1.250000000000000000e+02
9.900000000000000000e+01 1.250000000000000000e+02
1.000000000000000000e+02 1.250000000000000000e+02
1.010000000000000000e+02 1.250000000000000000e+02
2.730000000000000000e+02 1.250000000000000000e+02
2.740000000000000000e+02 1.250000000000000000e+02
2.750000000000000000e+02 1.250000000000000000e+02
2.780000000000000000e+02 1.250000000000000000e+02
2.790000000000000000e+02 1.250000000000000000e+02
2.800000000000000000e+02 1.250000000000000000e+02
4.530000000000000000e+02 1.250000000000000000e+02
4.540000000000000000e+02 1.250000000000000000e+02
4.550000000000000000e+02 1.250000000000000000e+02
4.570000000000000000e+02 1.250000000000000000e+02
4.580000000000000000e+02 1.250000000000000000e+02
4.590000000000000000e+02 1.250000000000000000e+02
6.350000000000000000e+02 1.250000000000000000e+02
6.360000000000000000e+02 1.250000000000000000e+02
6.370000000000000000e+02 1.250000000000000000e+02
6.390000000000000000e+02 1.250000000000000000e+02
6.400000000000000000e+02 1.250000000000000000e+02
6.410000000000000000e+02 1.250000000000000000e+02
6.420000000000000000e+02 1.250000000000000000e+02
8.150000000000000000e+02 1.250000000000000000e+02
8.160000000000000000e+02 1.250000000000000000e+02
8.170000000000000000e+02 1.250000000000000000e+02
8.200000000000000000e+02 1.250000000000000000e+02
8.210000000000000000e+02 1.250000000000000000e+02
8.220000000000000000e+02 1.250000000000000000e+02
9.940000000000000000e+02 1.250000000000000000e+02
9.950000000000000000e+02 1.250000000000000000e+02
9.960000000000000000e+02 1.250000000000000000e+02
9.970000000000000000e+02 1.250000000000000000e+02
9.990000000000000000e+02 1.250000000000000000e+02
9.400000000000000000e+01 1.260000000000000000e+02
9.500000000000000000e+01 1.260000000000000000e+02
9.600000000000000000e+01 1.260000000000000000e+02
9.900000000000000000e+01 1.260000000000000000e+02
1.000000000000000000e+02 1.260000000000000000e+02
1.010000000000000000e+02 1.260000000000000000e+02
2.730000000000000000e+02 1.260000000000000000e+02
2.740000000000000000e+02 1.260000000000000000e+02
2.750000000000000000e+02 1.260000000000000000e+02
2.780000000000000000e+02 1.260000000000000000e+02
2.790000000000000000e+02 1.260000000000000000e+02
2.800000000000000000e+02 1.260000000000000000e+02
4.530000000000000000e+02 1.260000000000000000e+02
4.540000000000000000e+02 1.260000000000000000e+02
4.550000000000000000e+02 1.260000000000000000e+02
4.570000000000000000e+02 1.260000000000000000e+02
4.580000000000000000e+02 1.260000000000000000e+02
4.590000000000000000e+02 1.260000000000000000e+02
6.350000000000000000e+02 1.260000000000000000e+02
6.360000000000000000e+02 1.260000000000000000e+02
6.370000000000000000e+02 1.260000000000000000e+02
6.390000000000000000e+02 1.260000000000000000e+02
6.400000000000000000e+02 1.260000000000000000e+02
6.410000000000000000e+02 1.260000000000000000e+02
6.420000000000000000e+02 1.260000000000000000e+02
8.150000000000000000e+02 1.260000000000000000e+02
8.160000000000000000e+02 1.260000000000000000e+02
8.170000000000000000e+02 1.260000000000000000e+02
8.200000000000000000e+02 1.260000000000000000e+02
8.210000000000000000e+02 1.260000000000000000e+02
8.220000000000000000e+02 1.260000000000000000e+02
9.940000000000000000e+02 1.260000000000000000e+02
9.950000000000000000e+02 1.260000000000000000e+02
9.960000000000000000e+02 1.260000000000000000e+02
9.970000000000000000e+02 1.260000000000000000e+02
9.990000000000000000e+02 1.260000000000000000e+02
9.400000000000000000e+01 1.270000000000000000e+02
9.500000000000000000e+01 1.270000000000000000e+02
9.600000000000000000e+01 1.270000000000000000e+02
9.900000000000000000e+01 1.270000000000000000e+02
1.000000000000000000e+02 1.270000000000000000e+02
1.010000000000000000e+02 1.270000000000000000e+02
2.730000000000000000e+02 1.270000000000000000e+02
2.740000000000000000e+02 1.270000000000000000e+02
2.750000000000000000e+02 1.270000000000000000e+02
2.780000000000000000e+02 1.270000000000000000e+02
2.790000000000000000e+02 1.270000000000000000e+02
2.800000000000000000e+02 1.270000000000000000e+02
2.810000000000000000e+02 1.270000000000000000e+02
4.530000000000000000e+02 1.270000000000000000e+02
4.540000000000000000e+02 1.270000000000000000e+02
4.550000000000000000e+02 1.270000000000000000e+02
4.570000000000000000e+02 1.270000000000000000e+02
4.580000000000000000e+02 1.270000000000000000e+02
4.590000000000000000e+02 1.270000000000000000e+02
6.350000000000000000e+02 1.270000000000000000e+02
6.360000000000000000e+02 1.270000000000000000e+02
6.370000000000000000e+02 1.270000000000000000e+02
6.390000000000000000e+02 1.270000000000000000e+02
6.400000000000000000e+02 1.270000000000000000e+02
6.410000000000000000e+02 1.270000000000000000e+02
6.420000000000000000e+02 1.270000000000000000e+02
8.150000000000000000e+02 1.270000000000000000e+02
8.160000000000000000e+02 1.270000000000000000e+02
8.170000000000000000e+02 1.270000000000000000e+02
8.200000000000000000e+02 1.270000000000000000e+02
8.210000000000000000e+02 1.270000000000000000e+02
8.220000000000000000e+02 1.270000000000000000e+02
9.940000000000000000e+02 1.270000000000000000e+02
9.950000000000000000e+02 1.270000000000000000e+02
9.960000000000000000e+02 1.270000000000000000e+02
9.970000000000000000e+02 1.270000000000000000e+02
9.990000000000000000e+02 1.270000000000000000e+02
9.400000000000000000e+01 1.280000000000000000e+02
9.500000000000000000e+01 1.280000000000000000e+02
9.600000000000000000e+01 1.280000000000000000e+02
9.900000000000000000e+01 1.280000000000000000e+02
1.000000000000000000e+02 1.280000000000000000e+02
1.010000000000000000e+02 1.280000000000000000e+02
2.730000000000000000e+02 1.280000000000000000e+02
2.740000000000000000e+02 1.280000000000000000e+02
2.750000000000000000e+02 1.280000000000000000e+02
2.780000000000000000e+02 1.280000000000000000e+02
2.790000000000000000e+02 1.280000000000000000e+02
2.800000000000000000e+02 1.280000000000000000e+02
2.810000000000000000e+02 1.280000000000000000e+02
4.530000000000000000e+02 1.280000000000000000e+02
4.540000000000000000e+02 1.280000000000000000e+02
4.550000000000000000e+02 1.280000000000000000e+02
4.570000000000000000e+02 1.280000000000000000e+02
4.580000000000000000e+02 1.280000000000000000e+02
4.590000000000000000e+02 1.280000000000000000e+02
4.600000000000000000e+02 1.280000000000000000e+02
6.350000000000000000e+02 1.280000000000000000e+02
6.360000000000000000e+02 1.280000000000000000e+02
6.370000000000000000e+02 1.280000000000000000e+02
6.400000000000000000e+02 1.280000000000000000e+02
6.410000000000000000e+02 1.280000000000000000e+02
6.420000000000000000e+02 1.280000000000000000e+02
8.150000000000000000e+02 1.280000000000000000e+02
8.160000000000000000e+02 1.280000000000000000e+02
8.170000000000000000e+02 1.280000000000000000e+02
8.200000000000000000e+02 1.280000000000000000e+02
8.210000000000000000e+02 1.280000000000000000e+02
8.220000000000000000e+02 1.280000000000000000e+02
9.940000000000000000e+02 1.280000000000000000e+02
9.950000000000000000e+02 1.280000000000000000e+02
9.960000000000000000e+02 1.280000000000000000e+02
9.970000000000000000e+02 1.280000000000000000e+02
9.990000000000000000e+02 1.280000000000000000e+02
9.400000000000000000e+01 1.290000000000000000e+02
9.500000000000000000e+01 1.290000000000000000e+02
9.600000000000000000e+01 1.290000000000000000e+02
9.900000000000000000e+01 1.290000000000000000e+02
1.000000000000000000e+02 1.290000000000000000e+02
1.010000000000000000e+02 1.290000000000000000e+02
2.730000000000000000e+02 1.290000000000000000e+02
2.740000000000000000e+02 1.290000000000000000e+02
2.750000000000000000e+02 1.290000000000000000e+02
2.780000000000000000e+02 1.290000000000000000e+02
2.790000000000000000e+02 1.290000000000000000e+02
2.800000000000000000e+02 1.290000000000000000e+02
2.810000000000000000e+02 1.290000000000000000e+02
4.520000000000000000e+02 1.290000000000000000e+02
4.530000000000000000e+02 1.290000000000000000e+02
4.540000000000000000e+02 1.290000000000000000e+02
4.550000000000000000e+02 1.290000000000000000e+02
4.570000000000000000e+02 1.290000000000000000e+02
4.580000000000000000e+02 1.290000000000000000e+02
4.590000000000000000e+02 1.290000000000000000e+02
4.600000000000000000e+02 1.290000000000000000e+02
6.350000000000000000e+02 1.290000000000000000e+02
6.360000000000000000e+02 1.290000000000000000e+02
6.370000000000000000e+02 1.290000000000000000e+02
6.400000000000000000e+02 1.290000000000000000e+02
6.410000000000000000e+02 1.290000000000000000e+02
6.420000000000000000e+02 1.290000000000000000e+02
8.150000000000000000e+02 1.290000000000000000e+02
8.160000000000000000e+02 1.290000000000000000e+02
8.170000000000000000e+02 1.290000000000000000e+02
8.200000000000000000e+02 1.290000000000000000e+02
8.210000000000000000e+02 1.290000000000000000e+02
8.220000000000000000e+02 1.290000000000000000e+02
8.230000000000000000e+02 1.290000000000000000e+02
9.940000000000000000e+02 1.290000000000000000e+02
9.950000000000000000e+02 1.290000000000000000e+02
9.960000000000000000e+02 1.290000000000000000e+02
9.970000000000000000e+02 1.290000000000000000e+02
9.990000000000000000e+02 1.290000000000000000e+02
9.400000000000000000e+01 1.300000000000000000e+02
9.500000000000000000e+01 1.300000000000000000e+02
9.600000000000000000e+01 1.300000000000000000e+02
9.900000000000000000e+01 1.300000000000000000e+02
1.000000000000000000e+02 1.300000000000000000e+02
1.010000000000000000e+02 1.300000000000000000e+02
2.730000000000000000e+02 1.300000000000000000e+02
2.740000000000000000e+02 1.300000000000000000e+02
2.750000000000000000e+02 1.300000000000000000e+02
2.780000000000000000e+02 1.300000000000000000e+02
2.790000000000000000e+02 1.300000000000000000e+02
2.800000000000000000e+02 1.300000000000000000e+02
2.810000000000000000e+02 1.300000000000000000e+02
4.520000000000000000e+02 1.300000000000000000e+02
4.530000000000000000e+02 1.300000000000000000e+02
4.540000000000000000e+02 1.300000000000000000e+02
4.550000000000000000e+02 1.300000000000000000e+02
4.570000000000000000e+02 1.300000000000000000e+02
4.580000000000000000e+02 1.300000000000000000e+02
4.590000000000000000e+02 1.300000000000000000e+02
4.600000000000000000e+02 1.300000000000000000e+02
6.340000000000000000e+02 1.300000000000000000e+02
6.350000000000000000e+02 1.300000000000000000e+02
6.360000000000000000e+02 1.300000000000000000e+02
6.370000000000000000e+02 1.300000000000000000e+02
6.400000000000000000e+02 1.300000000000000000e+02
6.410000000000000000e+02 1.300000000000000000e+02
6.420000000000000000e+02 1.300000000000000000e+02
8.150000000000000000e+02 1.300000000000000000e+02
8.160000000000000000e+02 1.300000000000000000e+02
8.170000000000000000e+02 1.300000000000000000e+02
8.200000000000000000e+02 1.300000000000000000e+02
8.210000000000000000e+02 1.300000000000000000e+02
8.220000000000000000e+02 1.300000000000000000e+02
8.230000000000000000e+02 1.300000000000000000e+02
9.940000000000000000e+02 1.300000000000000000e+02
9.950000000000000000e+02 1.300000000000000000e+02
9.960000000000000000e+02 1.300000000000000000e+02
9.970000000000000000e+02 1.300000000000000000e+02
9.990000000000000000e+02 1.300000000000000000e+02
9.400000000000000000e+01 1.310000000000000000e+02
9.500000000000000000e+01 1.310000000000000000e+02
9.600000000000000000e+01 1.310000000000000000e+02
9.900000000000000000e+01 1.310000000000000000e+02
1.000000000000000000e+02 1.310000000000000000e+02
1.010000000000000000e+02 1.310000000000000000e+02
2.730000000000000000e+02 1.310000000000000000e+02
2.740000000000000000e+02 1.310000000000000000e+02
2.750000000000000000e+02 1.310000000000000000e+02
2.780000000000000000e+02 1.310000000000000000e+02
2.790000000000000000e+02 1.310000000000000000e+02
2.800000000000000000e+02 1.310000000000000000e+02
2.810000000000000000e+02 1.310000000000000000e+02
4.520000000000000000e+02 1.310000000000000000e+02
4.530000000000000000e+02 1.310000000000000000e+02
4.540000000000000000e+02 1.310000000000000000e+02
4.550000000000000000e+02 1.310000000000000000e+02
4.580000000000000000e+02 1.310000000000000000e+02
4.590000000000000000e+02 1.310000000000000000e+02
4.600000000000000000e+02 1.310000000000000000e+02
6.340000000000000000e+02 1.310000000000000000e+02
6.350000000000000000e+02 1.310000000000000000e+02
6.360000000000000000e+02 1.310000000000000000e+02
6.370000000000000000e+02 1.310000000000000000e+02
6.400000000000000000e+02 1.310000000000000000e+02
6.410000000000000000e+02 1.310000000000000000e+02
6.420000000000000000e+02 1.310000000000000000e+02
8.150000000000000000e+02 1.310000000000000000e+02
8.160000000000000000e+02 1.310000000000000000e+02
8.170000000000000000e+02 1.310000000000000000e+02
8.200000000000000000e+02 1.310000000000000000e+02
8.210000000000000000e+02 1.310000000000000000e+02
8.220000000000000000e+02 1.310000000000000000e+02
8.230000000000000000e+02 1.310000000000000000e+02
9.940000000000000000e+02 1.310000000000000000e+02
9.950000000000000000e+02 1.310000000000000000e+02
9.960000000000000000e+02 1.310000000000000000e+02
9.990000000000000000e+02 1.310000000000000000e+02
4.300000000000000000e+01 1.320000000000000000e+02
4.400000000000000000e+01 1.320000000000000000e+02
4.500000000000000000e+01 1.320000000000000000e+02
4.600000000000000000e+01 1.320000000000000000e+02
4.700000000000000000e+01 1.320000000000000000e+02
4.800000000000000000e+01 1.320000000000000000e+02
4.900000000000000000e+01 1.320000000000000000e+02
5.600000000000000000e+01 1.320000000000000000e+02
5.700000000000000000e+01 1.320000000000000000e+02
5.800000000000000000e+01 1.320000000000000000e+02
5.900000000000000000e+01 1.320000000000000000e+02
6.000000000000000000e+01 1.320000000000000000e+02
6.100000000000000000e+01 1.320000000000000000e+02
6.300000000000000000e+01 1.320000000000000000e+02
6.400000000000000000e+01 1.320000000000000000e+02
6.500000000000000000e+01 1.320000000000000000e+02
6.600000000000000000e+01 1.320000000000000000e+02
6.700000000000000000e+01 1.320000000000000000e+02
6.800000000000000000e+01 1.320000000000000000e+02
6.900000000000000000e+01 1.320000000000000000e+02
7.000000000000000000e+01 1.320000000000000000e+02
7.100000000000000000e+01 1.320000000000000000e+02
7.200000000000000000e+01 1.320000000000000000e+02
7.300000000000000000e+01 1.320000000000000000e+02
7.400000000000000000e+01 1.320000000000000000e+02
7.500000000000000000e+01 1.320000000000000000e+02
9.400000000000000000e+01 1.320000000000000000e+02
9.500000000000000000e+01 1.320000000000000000e+02
9.600000000000000000e+01 1.320000000000000000e+02
9.900000000000000000e+01 1.320000000000000000e+02
1.000000000000000000e+02 1.320000000000000000e+02
1.010000000000000000e+02 1.320000000000000000e+02
2.730000000000000000e+02 1.320000000000000000e+02
2.740000000000000000e+02 1.320000000000000000e+02
2.750000000000000000e+02 1.320000000000000000e+02
2.780000000000000000e+02 1.320000000000000000e+02
2.790000000000000000e+02 1.320000000000000000e+02
2.800000000000000000e+02 1.320000000000000000e+02
2.810000000000000000e+02 1.320000000000000000e+02
4.520000000000000000e+02 1.320000000000000000e+02
4.530000000000000000e+02 1.320000000000000000e+02
4.540000000000000000e+02 1.320000000000000000e+02
4.550000000000000000e+02 1.320000000000000000e+02
4.580000000000000000e+02 1.320000000000000000e+02
4.590000000000000000e+02 1.320000000000000000e+02
4.600000000000000000e+02 1.320000000000000000e+02
6.340000000000000000e+02 1.320000000000000000e+02
6.350000000000000000e+02 1.320000000000000000e+02
6.360000000000000000e+02 1.320000000000000000e+02
6.400000000000000000e+02 1.320000000000000000e+02
6.410000000000000000e+02 1.320000000000000000e+02
6.420000000000000000e+02 1.320000000000000000e+02
8.150000000000000000e+02 1.320000000000000000e+02
8.160000000000000000e+02 1.320000000000000000e+02
8.170000000000000000e+02 1.320000000000000000e+02
8.200000000000000000e+02 1.320000000000000000e+02
8.210000000000000000e+02 1.320000000000000000e+02
8.220000000000000000e+02 1.320000000000000000e+02
8.230000000000000000e+02 1.320000000000000000e+02
9.940000000000000000e+02 1.320000000000000000e+02
9.950000000000000000e+02 1.320000000000000000e+02
9.960000000000000000e+02 1.320000000000000000e+02
9.990000000000000000e+02 1.320000000000000000e+02
4.400000000000000000e+01 1.330000000000000000e+02
4.500000000000000000e+01 1.330000000000000000e+02
4.600000000000000000e+01 1.330000000000000000e+02
4.700000000000000000e+01 1.330000000000000000e+02
5.800000000000000000e+01 1.330000000000000000e+02
5.900000000000000000e+01 1.330000000000000000e+02
6.000000000000000000e+01 1.330000000000000000e+02
6.500000000000000000e+01 1.330000000000000000e+02
6.600000000000000000e+01 1.330000000000000000e+02
6.700000000000000000e+01 1.330000000000000000e+02
7.300000000000000000e+01 1.330000000000000000e+02
7.400000000000000000e+01 1.330000000000000000e+02
7.500000000000000000e+01 1.330000000000000000e+02
9.400000000000000000e+01 1.330000000000000000e+02
9.500000000000000000e+01 1.330000000000000000e+02
9.600000000000000000e+01 1.330000000000000000e+02
9.900000000000000000e+01 1.330000000000000000e+02
1.000000000000000000e+02 1.330000000000000000e+02
1.010000000000000000e+02 1.330000000000000000e+02
2.730000000000000000e+02 1.330000000000000000e+02
2.740000000000000000e+02 1.330000000000000000e+02
2.750000000000000000e+02 1.330000000000000000e+02
2.790000000000000000e+02 1.330000000000000000e+02
2.800000000000000000e+02 1.330000000000000000e+02
2.810000000000000000e+02 1.330000000000000000e+02
4.520000000000000000e+02 1.330000000000000000e+02
4.530000000000000000e+02 1.330000000000000000e+02
4.540000000000000000e+02 1.330000000000000000e+02
4.550000000000000000e+02 1.330000000000000000e+02
4.580000000000000000e+02 1.330000000000000000e+02
4.590000000000000000e+02 1.330000000000000000e+02
4.600000000000000000e+02 1.330000000000000000e+02
6.340000000000000000e+02 1.330000000000000000e+02
6.350000000000000000e+02 1.330000000000000000e+02
6.360000000000000000e+02 1.330000000000000000e+02
6.400000000000000000e+02 1.330000000000000000e+02
6.410000000000000000e+02 1.330000000000000000e+02
6.420000000000000000e+02 1.330000000000000000e+02
8.150000000000000000e+02 1.330000000000000000e+02
8.160000000000000000e+02 1.330000000000000000e+02
8.170000000000000000e+02 1.330000000000000000e+02
8.210000000000000000e+02 1.330000000000000000e+02
8.220000000000000000e+02 1.330000000000000000e+02
8.230000000000000000e+02 1.330000000000000000e+02
9.940000000000000000e+02 1.330000000000000000e+02
9.950000000000000000e+02 1.330000000000000000e+02
9.960000000000000000e+02 1.330000000000000000e+02
4.500000000000000000e+01 1.340000000000000000e+02
4.600000000000000000e+01 1.340000000000000000e+02
4.700000000000000000e+01 1.340000000000000000e+02
5.800000000000000000e+01 1.340000000000000000e+02
5.900000000000000000e+01 1.340000000000000000e+02
6.500000000000000000e+01 1.340000000000000000e+02
6.600000000000000000e+01 1.340000000000000000e+02
6.700000000000000000e+01 1.340000000000000000e+02
7.500000000000000000e+01 1.340000000000000000e+02
9.400000000000000000e+01 1.340000000000000000e+02
9.500000000000000000e+01 1.340000000000000000e+02
9.600000000000000000e+01 1.340000000000000000e+02
9.900000000000000000e+01 1.340000000000000000e+02
1.000000000000000000e+02 1.340000000000000000e+02
1.010000000000000000e+02 1.340000000000000000e+02
1.020000000000000000e+02 1.340000000000000000e+02
2.730000000000000000e+02 1.340000000000000000e+02
2.740000000000000000e+02 1.340000000000000000e+02
2.750000000000000000e+02 1.340000000000000000e+02
2.790000000000000000e+02 1.340000000000000000e+02
2.800000000000000000e+02 1.340000000000000000e+02
2.810000000000000000e+02 1.340000000000000000e+02
4.520000000000000000e+02 1.340000000000000000e+02
4.530000000000000000e+02 1.340000000000000000e+02
4.540000000000000000e+02 1.340000000000000000e+02
4.550000000000000000e+02 1.340000000000000000e+02
4.580000000000000000e+02 1.340000000000000000e+02
4.590000000000000000e+02 1.340000000000000000e+02
4.600000000000000000e+02 1.340000000000000000e+02
6.340000000000000000e+02 1.340000000000000000e+02
6.350000000000000000e+02 1.340000000000000000e+02
6.360000000000000000e+02 1.340000000000000000e+02
6.400000000000000000e+02 1.340000000000000000e+02
6.410000000000000000e+02 1.340000000000000000e+02
6.420000000000000000e+02 1.340000000000000000e+02
8.150000000000000000e+02 1.340000000000000000e+02
8.160000000000000000e+02 1.340000000000000000e+02
8.170000000000000000e+02 1.340000000000000000e+02
8.210000000000000000e+02 1.340000000000000000e+02
8.220000000000000000e+02 1.340000000000000000e+02
8.230000000000000000e+02 1.340000000000000000e+02
9.940000000000000000e+02 1.340000000000000000e+02
9.950000000000000000e+02 1.340000000000000000e+02
9.960000000000000000e+02 1.340000000000000000e+02
4.600000000000000000e+01 1.350000000000000000e+02
4.700000000000000000e+01 1.350000000000000000e+02
5.800000000000000000e+01 1.350000000000000000e+02
6.500000000000000000e+01 1.350000000000000000e+02
6.600000000000000000e+01 1.350000000000000000e+02
6.700000000000000000e+01 1.350000000000000000e+02
9.400000000000000000e+01 1.350000000000000000e+02
9.500000000000000000e+01 1.350000000000000000e+02
9.600000000000000000e+01 1.350000000000000000e+02
9.900000000000000000e+01 1.350000000000000000e+02
1.000000000000000000e+02 1.350000000000000000e+02
1.010000000000000000e+02 1.350000000000000000e+02
1.020000000000000000e+02 1.350000000000000000e+02
2.730000000000000000e+02 1.350000000000000000e+02
2.740000000000000000e+02 1.350000000000000000e+02
2.750000000000000000e+02 1.350000000000000000e+02
2.790000000000000000e+02 1.350000000000000000e+02
2.800000000000000000e+02 1.350000000000000000e+02
2.810000000000000000e+02 1.350000000000000000e+02
4.520000000000000000e+02 1.350000000000000000e+02
4.530000000000000000e+02 1.350000000000000000e+02
4.540000000000000000e+02 1.350000000000000000e+02
4.550000000000000000e+02 1.350000000000000000e+02
4.580000000000000000e+02 1.350000000000000000e+02
4.590000000000000000e+02 1.350000000000000000e+02
4.600000000000000000e+02 1.350000000000000000e+02
6.340000000000000000e+02 1.350000000000000000e+02
6.350000000000000000e+02 1.350000000000000000e+02
6.360000000000000000e+02 1.350000000000000000e+02
6.400000000000000000e+02 1.350000000000000000e+02
6.410000000000000000e+02 1.350000000000000000e+02
6.420000000000000000e+02 1.350000000000000000e+02
6.430000000000000000e+02 1.350000000000000000e+02
8.150000000000000000e+02 1.350000000000000000e+02
8.160000000000000000e+02 1.350000000000000000e+02
8.170000000000000000e+02 1.350000000000000000e+02
8.210000000000000000e+02 1.350000000000000000e+02
8.220000000000000000e+02 1.350000000000000000e+02
8.230000000000000000e+02 1.350000000000000000e+02
9.940000000000000000e+02 1.350000000000000000e+02
9.950000000000000000e+02 1.350000000000000000e+02
9.960000000000000000e+02 1.350000000000000000e+02
4.600000000000000000e+01 1.360000000000000000e+02
4.700000000000000000e+01 1.360000000000000000e+02
4.800000000000000000e+01 1.360000000000000000e+02
5.800000000000000000e+01 1.360000000000000000e+02
6.500000000000000000e+01 1.360000000000000000e+02
6.600000000000000000e+01 1.360000000000000000e+02
6.700000000000000000e+01 1.360000000000000000e+02
7.600000000000000000e+01 1.360000000000000000e+02
9.300000000000000000e+01 1.360000000000000000e+02
9.400000000000000000e+01 1.360000000000000000e+02
9.500000000000000000e+01 1.360000000000000000e+02
9.600000000000000000e+01 1.360000000000000000e+02
1.000000000000000000e+02 1.360000000000000000e+02
1.010000000000000000e+02 1.360000000000000000e+02
1.020000000000000000e+02 1.360000000000000000e+02
2.730000000000000000e+02 1.360000000000000000e+02
2.740000000000000000e+02 1.360000000000000000e+02
2.750000000000000000e+02 1.360000000000000000e+02
2.790000000000000000e+02 1.360000000000000000e+02
2.800000000000000000e+02 1.360000000000000000e+02
2.810000000000000000e+02 1.360000000000000000e+02
4.520000000000000000e+02 1.360000000000000000e+02
4.530000000000000000e+02 1.360000000000000000e+02
4.540000000000000000e+02 1.360000000000000000e+02
4.580000000000000000e+02 1.360000000000000000e+02
4.590000000000000000e+02 1.360000000000000000e+02
4.600000000000000000e+02 1.360000000000000000e+02
6.340000000000000000e+02 1.360000000000000000e+02
6.350000000000000000e+02 1.360000000000000000e+02
6.360000000000000000e+02 1.360000000000000000e+02
6.400000000000000000e+02 1.360000000000000000e+02
6.410000000000000000e+02 1.360000000000000000e+02
6.420000000000000000e+02 1.360000000000000000e+02
6.430000000000000000e+02 1.360000000000000000e+02
8.150000000000000000e+02 1.360000000000000000e+02
8.160000000000000000e+02 1.360000000000000000e+02
8.170000000000000000e+02 1.360000000000000000e+02
8.210000000000000000e+02 1.360000000000000000e+02
8.220000000000000000e+02 1.360000000000000000e+02
8.230000000000000000e+02 1.360000000000000000e+02
9.940000000000000000e+02 1.360000000000000000e+02
9.950000000000000000e+02 1.360000000000000000e+02
9.960000000000000000e+02 1.360000000000000000e+02
4.600000000000000000e+01 1.370000000000000000e+02
4.700000000000000000e+01 1.370000000000000000e+02
4.800000000000000000e+01 1.370000000000000000e+02
5.700000000000000000e+01 1.370000000000000000e+02
5.800000000000000000e+01 1.370000000000000000e+02
6.500000000000000000e+01 1.370000000000000000e+02
6.600000000000000000e+01 1.370000000000000000e+02
6.700000000000000000e+01 1.370000000000000000e+02
9.300000000000000000e+01 1.370000000000000000e+02
9.400000000000000000e+01 1.370000000000000000e+02
9.500000000000000000e+01 1.370000000000000000e+02
9.600000000000000000e+01 1.370000000000000000e+02
1.000000000000000000e+02 1.370000000000000000e+02
1.010000000000000000e+02 1.370000000000000000e+02
1.020000000000000000e+02 1.370000000000000000e+02
2.730000000000000000e+02 1.370000000000000000e+02
2.740000000000000000e+02 1.370000000000000000e+02
2.750000000000000000e+02 1.370000000000000000e+02
2.790000000000000000e+02 1.370000000000000000e+02
2.800000000000000000e+02 1.370000000000000000e+02
2.810000000000000000e+02 1.370000000000000000e+02
4.520000000000000000e+02 1.370000000000000000e+02
4.530000000000000000e+02 1.370000000000000000e+02
4.540000000000000000e+02 1.370000000000000000e+02
4.580000000000000000e+02 1.370000000000000000e+02
4.590000000000000000e+02 1.370000000000000000e+02
4.600000000000000000e+02 1.370000000000000000e+02
6.340000000000000000e+02 1.370000000000000000e+02
6.350000000000000000e+02 1.370000000000000000e+02
6.360000000000000000e+02 1.370000000000000000e+02
6.400000000000000000e+02 1.370000000000000000e+02
6.410000000000000000e+02 1.370000000000000000e+02
6.420000000000000000e+02 1.370000000000000000e+02
6.430000000000000000e+02 1.370000000000000000e+02
8.150000000000000000e+02 1.370000000000000000e+02
8.160000000000000000e+02 1.370000000000000000e+02
8.170000000000000000e+02 1.370000000000000000e+02
8.210000000000000000e+02 1.370000000000000000e+02
8.220000000000000000e+02 1.370000000000000000e+02
8.230000000000000000e+02 1.370000000000000000e+02
9.940000000000000000e+02 1.370000000000000000e+02
9.950000000000000000e+02 1.370000000000000000e+02
9.960000000000000000e+02 1.370000000000000000e+02
3.100000000000000000e+01 1.380000000000000000e+02
3.200000000000000000e+01 1.380000000000000000e+02
3.300000000000000000e+01 1.380000000000000000e+02
3.400000000000000000e+01 1.380000000000000000e+02
3.500000000000000000e+01 1.380000000000000000e+02
4.700000000000000000e+01 1.380000000000000000e+02
4.800000000000000000e+01 1.380000000000000000e+02
4.900000000000000000e+01 1.380000000000000000e+02
5.700000000000000000e+01 1.380000000000000000e+02
6.500000000000000000e+01 1.380000000000000000e+02
6.600000000000000000e+01 1.380000000000000000e+02
6.700000000000000000e+01 1.380000000000000000e+02
9.300000000000000000e+01 1.380000000000000000e+02
9.400000000000000000e+01 1.380000000000000000e+02
9.500000000000000000e+01 1.380000000000000000e+02
9.600000000000000000e+01 1.380000000000000000e+02
1.000000000000000000e+02 1.380000000000000000e+02
1.010000000000000000e+02 1.380000000000000000e+02
1.020000000000000000e+02 1.380000000000000000e+02
2.720000000000000000e+02 1.380000000000000000e+02
2.730000000000000000e+02 1.380000000000000000e+02
2.740000000000000000e+02 1.380000000000000000e+02
2.750000000000000000e+02 1.380000000000000000e+02
2.790000000000000000e+02 1.380000000000000000e+02
2.800000000000000000e+02 1.380000000000000000e+02
2.810000000000000000e+02 1.380000000000000000e+02
4.520000000000000000e+02 1.380000000000000000e+02
4.530000000000000000e+02 1.380000000000000000e+02
4.540000000000000000e+02 1.380000000000000000e+02
4.580000000000000000e+02 1.380000000000000000e+02
4.590000000000000000e+02 1.380000000000000000e+02
4.600000000000000000e+02 1.380000000000000000e+02
4.610000000000000000e+02 1.380000000000000000e+02
6.340000000000000000e+02 1.380000000000000000e+02
6.350000000000000000e+02 1.380000000000000000e+02
6.360000000000000000e+02 1.380000000000000000e+02
6.400000000000000000e+02 1.380000000000000000e+02
6.410000000000000000e+02 1.380000000000000000e+02
6.420000000000000000e+02 1.380000000000000000e+02
6.430000000000000000e+02 1.380000000000000000e+02
8.150000000000000000e+02 1.380000000000000000e+02
8.160000000000000000e+02 1.380000000000000000e+02
8.170000000000000000e+02 1.380000000000000000e+02
8.210000000000000000e+02 1.380000000000000000e+02
8.220000000000000000e+02 1.380000000000000000e+02
8.230000000000000000e+02 1.380000000000000000e+02
9.940000000000000000e+02 1.380000000000000000e+02
9.950000000000000000e+02 1.380000000000000000e+02
9.960000000000000000e+02 1.380000000000000000e+02
3.000000000000000000e+01 1.390000000000000000e+02
3.100000000000000000e+01 1.390000000000000000e+02
3.500000000000000000e+01 1.390000000000000000e+02
3.600000000000000000e+01 1.390000000000000000e+02
4.700000000000000000e+01 1.390000000000000000e+02
4.800000000000000000e+01 1.390000000000000000e+02
4.900000000000000000e+01 1.390000000000000000e+02
5.700000000000000000e+01 1.390000000000000000e+02
6.500000000000000000e+01 1.390000000000000000e+02
6.600000000000000000e+01 1.390000000000000000e+02
6.700000000000000000e+01 1.390000000000000000e+02
7.300000000000000000e+01 1.390000000000000000e+02
9.300000000000000000e+01 1.390000000000000000e+02
9.400000000000000000e+01 1.390000000000000000e+02
9.500000000000000000e+01 1.390000000000000000e+02
9.600000000000000000e+01 1.390000000000000000e+02
1.000000000000000000e+02 1.390000000000000000e+02
1.010000000000000000e+02 1.390000000000000000e+02
1.020000000000000000e+02 1.390000000000000000e+02
2.720000000000000000e+02 1.390000000000000000e+02
2.730000000000000000e+02 1.390000000000000000e+02
2.740000000000000000e+02 1.390000000000000000e+02
2.750000000000000000e+02 1.390000000000000000e+02
2.790000000000000000e+02 1.390000000000000000e+02
2.800000000000000000e+02 1.390000000000000000e+02
2.810000000000000000e+02 1.390000000000000000e+02
2.820000000000000000e+02 1.390000000000000000e+02
4.520000000000000000e+02 1.390000000000000000e+02
4.530000000000000000e+02 1.390000000000000000e+02
4.540000000000000000e+02 1.390000000000000000e+02
4.580000000000000000e+02 1.390000000000000000e+02
4.590000000000000000e+02 1.390000000000000000e+02
4.600000000000000000e+02 1.390000000000000000e+02
4.610000000000000000e+02 1.390000000000000000e+02
6.340000000000000000e+02 1.390000000000000000e+02
6.350000000000000000e+02 1.390000000000000000e+02
6.360000000000000000e+02 1.390000000000000000e+02
6.410000000000000000e+02 1.390000000000000000e+02
6.420000000000000000e+02 1.390000000000000000e+02
6.430000000000000000e+02 1.390000000000000000e+02
8.140000000000000000e+02 1.390000000000000000e+02
8.150000000000000000e+02 1.390000000000000000e+02
8.160000000000000000e+02 1.390000000000000000e+02
8.170000000000000000e+02 1.390000000000000000e+02
8.210000000000000000e+02 1.390000000000000000e+02
8.220000000000000000e+02 1.390000000000000000e+02
8.230000000000000000e+02 1.390000000000000000e+02
9.940000000000000000e+02 1.390000000000000000e+02
9.950000000000000000e+02 1.390000000000000000e+02
9.960000000000000000e+02 1.390000000000000000e+02
